Relative time (s)	Voltage (V)	Temperature (°C)	
19.484	3.0803	25.20	
79.484	3.1068	25.20	
139.484	3.1176	25.18	
199.484	3.1240	25.15	
259.484	3.1287	25.12	
319.484	3.1322	25.11	
379.484	3.1348	25.08	
439.484	3.1373	25.05	
499.484	3.1392	25.03	
559.484	3.1409	25.02	
619.484	3.1425	24.99	
679.484	3.1438	24.97	
739.484	3.1452	24.95	
799.484	3.1465	24.93	
859.484	3.1477	24.91	
903.306	3.1486	24.89	
