Relative time (s)	Voltage (V)	Temperature (°C)	
23.128	3.2658	26.90	
83.128	3.2975	26.92	
143.128	3.3078	26.90	
203.128	3.3131	26.86	
263.128	3.3166	26.80	
323.128	3.3189	26.75	
383.128	3.3208	26.70	
443.128	3.3222	26.63	
503.128	3.3234	26.58	
563.128	3.3245	26.52	
623.128	3.3255	26.46	
683.128	3.3262	26.40	
743.128	3.3270	26.34	
803.128	3.3279	26.27	
863.128	3.3285	26.21	
923.128	3.3291	26.17	
983.128	3.3297	26.11	
1043.128	3.3301	26.04	
1093.128	3.3307	25.99	
