Relative time (s)	Voltage (V)	Temperature (°C)	
16.541	3.2487	26.75	
44.541	3.2757	26.78	
104.541	3.2933	26.77	
164.541	3.3005	26.74	
224.541	3.3042	26.70	
284.541	3.3069	26.66	
344.541	3.3088	26.60	
404.541	3.3103	26.56	
464.541	3.3114	26.50	
524.541	3.3126	26.44	
584.541	3.3136	26.39	
644.541	3.3143	26.34	
704.541	3.3151	26.27	
764.541	3.3159	26.23	
824.541	3.3167	26.17	
884.541	3.3173	26.13	
944.541	3.3180	26.07	
1004.541	3.3185	26.02	
1026.541	3.3187	25.99	
