Relative time (s)	Voltage (V)	Temperature (°C)	
16.401	3.2502	26.82	
46.401	3.2783	26.84	
106.401	3.2953	26.84	
166.401	3.3024	26.80	
226.401	3.3063	26.76	
286.401	3.3088	26.72	
346.401	3.3107	26.67	
406.401	3.3121	26.62	
466.401	3.3133	26.56	
526.401	3.3144	26.50	
586.401	3.3154	26.46	
646.401	3.3164	26.39	
706.401	3.3170	26.34	
766.401	3.3179	26.29	
826.401	3.3185	26.23	
886.401	3.3190	26.19	
946.401	3.3197	26.13	
1006.401	3.3203	26.09	
1066.401	3.3208	26.03	
1118.401	3.3213	25.99	
