Relative time (s)	Voltage (V)	Temperature (°C)	
17.478	3.2512	26.70	
45.478	3.2772	26.72	
105.478	3.2945	26.72	
165.478	3.3013	26.68	
225.478	3.3053	26.64	
285.478	3.3079	26.59	
345.478	3.3097	26.54	
405.478	3.3112	26.50	
465.478	3.3124	26.44	
525.478	3.3135	26.39	
585.478	3.3144	26.34	
645.478	3.3153	26.29	
705.478	3.3161	26.23	
765.478	3.3168	26.18	
825.478	3.3176	26.12	
885.478	3.3181	26.07	
945.478	3.3188	26.02	
964.478	3.3190	25.99	
