Relative time (s)	Voltage (V)	Temperature (°C)	
24.509	3.2609	26.76	
50.509	3.2783	26.76	
110.509	3.2926	26.76	
170.509	3.2984	26.72	
230.509	3.3016	26.66	
290.509	3.3040	26.62	
350.509	3.3057	26.57	
410.509	3.3071	26.51	
470.509	3.3082	26.46	
530.509	3.3094	26.39	
590.509	3.3102	26.34	
650.509	3.3110	26.29	
710.509	3.3119	26.23	
770.509	3.3126	26.18	
830.509	3.3133	26.12	
890.509	3.3139	26.07	
950.509	3.3146	26.02	
985.509	3.3149	25.99	
