Relative time (s)	Voltage (V)	Temperature (°C)	
54.851	3.2767	26.30	
114.851	3.3004	26.29	
174.851	3.3113	26.23	
234.851	3.3180	26.16	
294.851	3.3225	26.09	
354.851	3.3256	26.03	
414.851	3.3282	25.95	
474.851	3.3300	25.87	
534.851	3.3316	25.81	
594.851	3.3329	25.72	
654.851	3.3343	25.65	
714.851	3.3352	25.58	
774.851	3.3362	25.52	
834.851	3.3371	25.46	
894.851	3.3379	25.40	
903.306	3.3380	25.40	
