Relative time (s)	Voltage (V)	Temperature (°C)	
20.311	3.2616	26.95	
47.311	3.2841	26.97	
107.311	3.3020	26.95	
167.311	3.3096	26.92	
227.311	3.3141	26.87	
287.311	3.3170	26.82	
347.311	3.3191	26.76	
407.311	3.3208	26.71	
467.311	3.3221	26.66	
527.311	3.3234	26.58	
587.311	3.3243	26.53	
647.311	3.3252	26.47	
707.311	3.3260	26.42	
767.311	3.3267	26.35	
827.311	3.3274	26.29	
887.311	3.3281	26.21	
947.311	3.3287	26.16	
1007.311	3.3293	26.11	
1067.311	3.3298	26.05	
1126.311	3.3303	25.99	
