Relative time (s)	Voltage (V)	Temperature (°C)	
9.397	3.2481	26.59	
37.397	3.2839	26.62	
97.397	3.3012	26.62	
157.397	3.3074	26.60	
217.397	3.3110	26.56	
277.397	3.3131	26.52	
337.397	3.3149	26.48	
397.397	3.3162	26.43	
457.397	3.3174	26.38	
517.397	3.3184	26.33	
577.397	3.3193	26.27	
637.397	3.3203	26.22	
697.397	3.3210	26.17	
757.397	3.3219	26.13	
817.397	3.3224	26.07	
877.397	3.3230	26.02	
909.397	3.3233	25.99	
