Ah_balance (normalized)	Ah_balance (mAh)	Voltage - fit (V)	Voltage -  interpolate (V)	dQ/dV (1/V)	Temperature (°C)	Temperature - diff (°C)	Current (C)	R_DC 0ms (mOhm)	R_DC 50ms (mOhm)	R_DC 50 ms PEC (mOhm)
0.0002	15.41	4.1800	4.1798	-0.2903	25.04	0.00	-0.050			
0.0005	35.07	4.1790	4.1787	-0.3233	25.04	0.00	-0.050			
0.0009	56.86	4.1780	4.1779	-0.3494	25.04	0.00	-0.050			
0.0012	79.80	4.1770	4.1766	-0.3699	25.04	0.00	-0.050			
0.0016	104.37	4.1760	4.1760	-0.3915	25.04	0.00	-0.050			
0.0021	132.90	4.1750	4.1750	-0.4162	25.04	0.00	-0.050			
0.0025	160.05	4.1740	4.1738	-0.4320	25.04	0.00	-0.050			
0.0030	191.82	4.1730	4.1727	-0.4446	25.04	0.00	-0.050			
0.0035	222.15	4.1720	4.1722	-0.4524	25.04	0.00	-0.050			
0.0039	249.99	4.1710	4.1709	-0.4637	25.04	-0.00	-0.050			
0.0044	279.27	4.1700	4.1699	-0.4755	25.03	-0.01	-0.050			
0.0048	309.86	4.1690	4.1691	-0.4870	25.03	-0.01	-0.050			
0.0054	343.46	4.1680	4.1683	-0.5024	25.03	-0.01	-0.050			
0.0059	375.26	4.1670	4.1673	-0.5135	25.03	-0.01	-0.050			
0.0064	408.82	4.1660	4.1664	-0.5230	25.02	-0.02	-0.050			
0.0069	442.53	4.1650	4.1653	-0.5324	25.02	-0.02	-0.050			
0.0075	476.98	4.1640	4.1630	-0.5406	25.02	-0.02	-0.050			
0.0080	512.24	4.1630	4.1614	-0.5468	25.02	-0.02	-0.050			
0.0086	547.88	4.1620	4.1620	-0.5533	25.02	-0.02	-0.050			
0.0091	584.18	4.1610	4.1603	-0.5587	25.02	-0.02	-0.050			
0.0097	620.88	4.1600	4.1602	-0.5631	25.02	-0.02	-0.050			
0.0103	657.41	4.1590	4.1593	-0.5678	25.02	-0.02	-0.050			
0.0108	694.19	4.1580	4.1582	-0.5734	25.02	-0.02	-0.050			
0.0114	731.60	4.1570	4.1573	-0.5776	25.02	-0.02	-0.050			
0.0120	769.48	4.1560	4.1561	-0.5819	25.02	-0.02	-0.050			
0.0126	807.45	4.1550	4.1551	-0.5912	25.02	-0.02	-0.050			
0.0132	844.23	4.1540	4.1542	-0.5982	25.03	-0.01	-0.050			
0.0138	884.87	4.1530	4.1528	-0.6052	25.03	-0.01	-0.050			
0.0144	923.06	4.1520	4.1519	-0.6124	25.03	-0.01	-0.050			
0.0150	959.83	4.1510	4.1508	-0.6086	25.03	-0.01	-0.050			
0.0156	997.93	4.1500	4.1494	-0.6126	25.02	-0.02	-0.050			
0.0162	1037.12	4.1490	4.1485	-0.6189	25.02	-0.02	-0.050			
0.0168	1077.26	4.1480	4.1476	-0.6264	25.02	-0.02	-0.050			
0.0175	1117.52	4.1470	4.1465	-0.6332	25.02	-0.02	-0.050			
0.0181	1158.34	4.1460	4.1456	-0.6391	25.02	-0.02	-0.050			
0.0188	1200.08	4.1450	4.1443	-0.6462	25.02	-0.02	-0.050			
0.0194	1241.98	4.1440	4.1440	-0.6519	25.02	-0.02	-0.050			
0.0201	1284.78	4.1430	4.1429	-0.6579	25.02	-0.02	-0.050	0.693	0.868	
0.0207	1327.99	4.1420	4.1422	-0.6637	25.02	-0.02	-0.050			
0.0214	1371.37	4.1410	4.1410	-0.6679	25.02	-0.02	-0.050			
0.0221	1415.76	4.1400	4.1400	-0.6700	25.02	-0.02	-0.050			
0.0228	1459.64	4.1390	4.1391	-0.6712	25.02	-0.02	-0.050			
0.0235	1502.93	4.1380	4.1381	-0.6715	25.02	-0.02	-0.050			
0.0242	1546.26	4.1370	4.1371	-0.6718	25.01	-0.03	-0.050			
0.0248	1589.62	4.1360	4.1360	-0.6720	25.00	-0.04	-0.050			
0.0255	1632.08	4.1350	4.1350	-0.6707	25.00	-0.04	-0.050			
0.0262	1674.17	4.1340	4.1340	-0.6680	25.00	-0.04	-0.050			
0.0268	1717.01	4.1330	4.1330	-0.6686	25.00	-0.04	-0.050			
0.0275	1759.82	4.1320	4.1320	-0.6688	24.99	-0.05	-0.050			
0.0282	1802.99	4.1310	4.1311	-0.6698	24.98	-0.06	-0.050			
0.0288	1845.46	4.1300	4.1299	-0.6696	24.98	-0.06	-0.050			
0.0295	1888.16	4.1290	4.1290	-0.6686	24.98	-0.06	-0.050			
0.0302	1930.88	4.1280	4.1280	-0.6684	24.97	-0.07	-0.050			
0.0308	1973.73	4.1270	4.1270	-0.6675	24.97	-0.07	-0.050			
0.0315	2017.51	4.1260	4.1259	-0.6631	24.96	-0.08	-0.050			
0.0322	2060.63	4.1250	4.1250	-0.6598	24.96	-0.08	-0.050			
0.0329	2103.37	4.1240	4.1240	-0.6560	24.94	-0.10	-0.050			
0.0335	2145.72	4.1230	4.1230	-0.6527	24.94	-0.10	-0.050			
0.0342	2187.59	4.1220	4.1221	-0.6504	24.94	-0.10	-0.050			
0.0348	2229.14	4.1210	4.1210	-0.6486	24.94	-0.10	-0.050			
0.0355	2270.74	4.1200	4.1201	-0.6470	24.92	-0.12	-0.050			
0.0361	2311.96	4.1190	4.1191	-0.6467	24.92	-0.12	-0.050			
0.0367	2351.97	4.1180	4.1182	-0.6448	24.92	-0.12	-0.050			
0.0374	2391.74	4.1170	4.1174	-0.6465	24.92	-0.12	-0.050			
0.0380	2432.09	4.1160	4.1158	-0.6466	24.92	-0.12	-0.050			
0.0386	2472.44	4.1150	4.1149	-0.6476	24.91	-0.13	-0.050			
0.0393	2512.95	4.1140	4.1138	-0.6494	24.90	-0.14	-0.050			
0.0399	2554.05	4.1130	4.1127	-0.6518	24.90	-0.14	-0.050	0.426	0.679	
0.0406	2595.41	4.1120	4.1119	-0.6541	24.88	-0.16	-0.050			
0.0412	2636.83	4.1110	4.1108	-0.6582	24.88	-0.16	-0.050			
0.0419	2679.09	4.1100	4.1097	-0.6619	24.88	-0.16	-0.050			
0.0425	2721.42	4.1090	4.1090	-0.6669	24.88	-0.16	-0.050			
0.0432	2764.74	4.1080	4.1081	-0.6723	24.87	-0.17	-0.050			
0.0439	2808.28	4.1070	4.1069	-0.6781	24.86	-0.18	-0.050			
0.0446	2852.85	4.1060	4.1060	-0.6841	24.86	-0.18	-0.050			
0.0453	2897.90	4.1050	4.1052	-0.6903	24.86	-0.18	-0.050			
0.0460	2942.18	4.1040	4.1040	-0.6932	24.85	-0.19	-0.050			
0.0467	2986.95	4.1030	4.1030	-0.6960	24.84	-0.20	-0.050			
0.0474	3031.55	4.1020	4.1018	-0.6982	24.84	-0.20	-0.050			
0.0481	3076.52	4.1010	4.1007	-0.6994	24.84	-0.20	-0.050			
0.0488	3121.34	4.1000	4.0997	-0.7018	24.84	-0.20	-0.050			
0.0495	3166.46	4.0990	4.0991	-0.7035	24.84	-0.20	-0.050			
0.0502	3211.50	4.0980	4.0981	-0.7044	24.84	-0.20	-0.050			
0.0509	3256.66	4.0970	4.0970	-0.7070	24.84	-0.20	-0.050			
0.0516	3302.71	4.0960	4.0962	-0.7080	24.84	-0.20	-0.050			
0.0523	3348.25	4.0950	4.0950	-0.7084	24.85	-0.19	-0.050			
0.0530	3393.42	4.0940	4.0938	-0.7105	24.85	-0.19	-0.050			
0.0537	3439.33	4.0930	4.0929	-0.7112	24.86	-0.18	-0.050			
0.0545	3485.04	4.0920	4.0920	-0.7125	24.86	-0.18	-0.050			
0.0552	3530.54	4.0910	4.0910	-0.7134	24.87	-0.17	-0.050			
0.0559	3575.98	4.0900	4.0900	-0.7136	24.87	-0.17	-0.050			
0.0566	3621.65	4.0890	4.0890	-0.7152	24.86	-0.18	-0.050			
0.0573	3666.98	4.0880	4.0881	-0.7156	24.87	-0.17	-0.050			
0.0580	3712.97	4.0870	4.0870	-0.7155	24.88	-0.16	-0.050			
0.0587	3758.68	4.0860	4.0856	-0.7171	24.88	-0.16	-0.050			
0.0595	3804.93	4.0850	4.0848	-0.7174	24.88	-0.16	-0.050			
0.0602	3850.82	4.0840	4.0838	-0.7176	24.88	-0.16	-0.050	0.657	0.798	
0.0609	3896.62	4.0830	4.0831	-0.7192	24.88	-0.16	-0.050			
0.0616	3942.44	4.0820	4.0821	-0.7211	24.89	-0.15	-0.050			
0.0623	3989.06	4.0810	4.0811	-0.7228	24.89	-0.15	-0.050			
0.0631	4035.57	4.0800	4.0801	-0.7231	24.90	-0.14	-0.050			
0.0638	4081.82	4.0790	4.0792	-0.7229	24.90	-0.14	-0.050			
0.0645	4128.39	4.0780	4.0781	-0.7241	24.90	-0.14	-0.050			
0.0652	4174.89	4.0770	4.0770	-0.7244	24.90	-0.14	-0.050			
0.0660	4221.37	4.0760	4.0761	-0.7242	24.90	-0.14	-0.050			
0.0667	4267.69	4.0750	4.0749	-0.7271	24.90	-0.14	-0.050			
0.0674	4313.87	4.0740	4.0737	-0.7257	24.91	-0.13	-0.050			
0.0681	4360.27	4.0730	4.0730	-0.7268	24.92	-0.12	-0.050			
0.0689	4406.78	4.0720	4.0722	-0.7288	24.92	-0.12	-0.050			
0.0696	4453.01	4.0710	4.0709	-0.7295	24.92	-0.12	-0.050			
0.0703	4499.77	4.0700	4.0701	-0.7303	24.92	-0.12	-0.050			
0.0710	4546.63	4.0690	4.0689	-0.7313	24.92	-0.12	-0.050			
0.0718	4593.21	4.0680	4.0680	-0.7333	24.92	-0.12	-0.050			
0.0725	4640.66	4.0670	4.0668	-0.7345	24.92	-0.12	-0.050			
0.0732	4687.72	4.0660	4.0659	-0.7358	24.92	-0.12	-0.050			
0.0740	4734.17	4.0650	4.0652	-0.7376	24.92	-0.12	-0.050			
0.0747	4781.72	4.0640	4.0641	-0.7393	24.92	-0.12	-0.050			
0.0755	4828.92	4.0630	4.0630	-0.7396	24.92	-0.12	-0.050			
0.0762	4876.18	4.0620	4.0620	-0.7410	24.91	-0.13	-0.050			
0.0769	4923.89	4.0610	4.0609	-0.7443	24.91	-0.13	-0.050			
0.0777	4970.00	4.0600	4.0601	-0.7531	24.90	-0.14	-0.050			
0.0784	5017.66	4.0590	4.0592	-0.7587	24.90	-0.14	-0.050			
0.0791	5065.26	4.0580	4.0581	-0.7658	24.90	-0.14	-0.050			
0.0799	5114.16	4.0570	4.0569	-0.7712	24.90	-0.14	-0.050	0.548	0.835	
0.0807	5163.83	4.0560	4.0559	-0.7759	24.90	-0.14	-0.050			
0.0815	5213.37	4.0550	4.0550	-0.7787	24.88	-0.16	-0.050			
0.0823	5264.74	4.0540	4.0539	-0.7822	24.88	-0.16	-0.050			
0.0831	5316.02	4.0530	4.0526	-0.7846	24.88	-0.16	-0.050			
0.0839	5366.82	4.0520	4.0516	-0.7862	24.88	-0.16	-0.050			
0.0847	5418.01	4.0510	4.0509	-0.7875	24.87	-0.17	-0.050			
0.0855	5470.25	4.0500	4.0503	-0.7901	24.86	-0.18	-0.050			
0.0863	5521.97	4.0490	4.0491	-0.7904	24.86	-0.18	-0.050			
0.0871	5573.21	4.0480	4.0482	-0.7887	24.86	-0.18	-0.050			
0.0879	5624.11	4.0470	4.0472	-0.7869	24.86	-0.18	-0.050			
0.0887	5675.29	4.0460	4.0460	-0.7855	24.84	-0.20	-0.050			
0.0895	5726.62	4.0450	4.0450	-0.7820	24.84	-0.20	-0.050			
0.0903	5777.03	4.0440	4.0440	-0.7769	24.84	-0.20	-0.050			
0.0911	5828.28	4.0430	4.0430	-0.7672	24.84	-0.20	-0.050			
0.0918	5877.54	4.0420	4.0418	-0.7563	24.84	-0.20	-0.050			
0.0926	5924.78	4.0410	4.0408	-0.7481	24.84	-0.20	-0.050			
0.0933	5970.87	4.0400	4.0399	-0.7372	24.84	-0.20	-0.050			
0.0940	6017.08	4.0390	4.0391	-0.7322	24.84	-0.20	-0.050			
0.0947	6063.72	4.0380	4.0382	-0.7280	24.84	-0.20	-0.050			
0.0955	6110.05	4.0370	4.0371	-0.7242	24.84	-0.20	-0.050			
0.0962	6155.44	4.0360	4.0362	-0.7229	24.84	-0.20	-0.050			
0.0969	6200.70	4.0350	4.0353	-0.7217	24.84	-0.20	-0.050			
0.0976	6245.12	4.0340	4.0338	-0.7202	24.84	-0.20	-0.050			
0.0983	6290.05	4.0330	4.0327	-0.7206	24.84	-0.20	-0.050			
0.0990	6334.58	4.0320	4.0318	-0.7242	24.84	-0.20	-0.050			
0.0997	6379.80	4.0310	4.0311	-0.7256	24.84	-0.20	-0.050			
0.1004	6424.40	4.0300	4.0300	-0.7267	24.84	-0.20	-0.050	0.505	0.815	
0.1011	6470.55	4.0290	4.0289	-0.7317	24.84	-0.20	-0.050			
0.1018	6517.18	4.0280	4.0278	-0.7377	24.84	-0.20	-0.050			
0.1026	6564.14	4.0270	4.0268	-0.7442	24.84	-0.20	-0.050			
0.1033	6612.13	4.0260	4.0261	-0.7503	24.84	-0.20	-0.050			
0.1041	6662.05	4.0250	4.0252	-0.7578	24.84	-0.20	-0.050			
0.1049	6710.77	4.0240	4.0241	-0.7645	24.85	-0.19	-0.050			
0.1057	6762.27	4.0230	4.0229	-0.7705	24.86	-0.18	-0.050			
0.1064	6812.60	4.0220	4.0223	-0.7758	24.86	-0.18	-0.050			
0.1072	6862.75	4.0210	4.0212	-0.7763	24.86	-0.18	-0.050			
0.1080	6912.55	4.0200	4.0200	-0.7791	24.86	-0.18	-0.050			
0.1088	6963.03	4.0190	4.0190	-0.7828	24.87	-0.17	-0.050			
0.1096	7013.31	4.0180	4.0181	-0.7849	24.88	-0.16	-0.050			
0.1104	7064.25	4.0170	4.0172	-0.7874	24.89	-0.15	-0.050			
0.1112	7114.44	4.0160	4.0157	-0.7892	24.90	-0.14	-0.050			
0.1120	7166.23	4.0150	4.0153	-0.7860	24.90	-0.14	-0.050			
0.1128	7216.08	4.0140	4.0140	-0.7852	24.91	-0.13	-0.050			
0.1135	7266.17	4.0130	4.0131	-0.7865	24.92	-0.12	-0.050			
0.1143	7317.17	4.0120	4.0117	-0.7855	24.92	-0.12	-0.050			
0.1151	7368.41	4.0110	4.0108	-0.7836	24.92	-0.12	-0.050			
0.1159	7419.53	4.0100	4.0104	-0.7783	24.93	-0.11	-0.050			
0.1167	7471.26	4.0090	4.0088	-0.7701	24.94	-0.10	-0.050			
0.1175	7521.84	4.0080	4.0081	-0.7628	24.93	-0.11	-0.050			
0.1183	7570.31	4.0070	4.0068	-0.7563	24.94	-0.10	-0.050			
0.1190	7614.74	4.0060	4.0061	-0.7654	24.94	-0.10	-0.050			
0.1197	7661.74	4.0050	4.0054	-0.7666	24.94	-0.10	-0.050			
0.1205	7709.17	4.0040	4.0041	-0.7716	24.94	-0.10	-0.050	0.400	0.517	
0.1212	7756.28	4.0030	4.0034	-0.7750	24.94	-0.10	-0.050			
0.1219	7803.98	4.0020	4.0023	-0.7829	24.94	-0.10	-0.050			
0.1227	7852.65	4.0010	4.0010	-0.7891	24.93	-0.11	-0.050			
0.1235	7901.45	4.0000	3.9990	-0.7923	24.93	-0.11	-0.050			
0.1243	7952.98	3.9990	3.9989	-0.7982	24.93	-0.11	-0.050			
0.1251	8003.46	3.9980	3.9975	-0.8036	24.92	-0.12	-0.050			
0.1259	8056.22	3.9970	3.9978	-0.8128	24.92	-0.12	-0.050			
0.1267	8109.41	3.9960	3.9962	-0.8182	24.91	-0.13	-0.050			
0.1275	8162.32	3.9950	3.9952	-0.8264	24.90	-0.14	-0.050			
0.1284	8217.48	3.9940	3.9945	-0.8348	24.90	-0.14	-0.050			
0.1293	8273.18	3.9930	3.9931	-0.8382	24.90	-0.14	-0.050			
0.1302	8329.92	3.9920	3.9923	-0.8459	24.88	-0.16	-0.050			
0.1310	8386.80	3.9910	3.9914	-0.8510	24.88	-0.16	-0.050			
0.1319	8444.32	3.9900	3.9899	-0.8495	24.88	-0.16	-0.050			
0.1328	8499.53	3.9890	3.9892	-0.8490	24.87	-0.17	-0.050			
0.1336	8552.49	3.9880	3.9877	-0.8493	24.87	-0.17	-0.050			
0.1344	8603.50	3.9870	3.9868	-0.8408	24.87	-0.17	-0.050			
0.1352	8652.60	3.9860	3.9862	-0.8312	24.86	-0.18	-0.050			
0.1360	8705.53	3.9850	3.9850	-0.8387	24.86	-0.18	-0.050			
0.1368	8758.35	3.9840	3.9837	-0.8427	24.86	-0.18	-0.050			
0.1377	8811.85	3.9830	3.9830	-0.8479	24.86	-0.18	-0.050			
0.1385	8865.79	3.9820	3.9819	-0.8533	24.85	-0.19	-0.050			
0.1394	8920.20	3.9810	3.9809	-0.8592	24.85	-0.19	-0.050			
0.1402	8975.45	3.9800	3.9798	-0.8655	24.84	-0.20	-0.050	0.792	0.982	
0.1411	9031.14	3.9790	3.9788	-0.8708	24.84	-0.20	-0.050			
0.1420	9087.86	3.9780	3.9779	-0.8738	24.84	-0.20	-0.050			
0.1429	9144.69	3.9770	3.9771	-0.8769	24.84	-0.20	-0.050			
0.1438	9202.37	3.9760	3.9760	-0.8786	24.84	-0.20	-0.050			
0.1447	9259.43	3.9750	3.9749	-0.8803	24.84	-0.20	-0.050			
0.1456	9317.07	3.9740	3.9739	-0.8821	24.84	-0.20	-0.050			
0.1465	9375.85	3.9730	3.9730	-0.8853	24.84	-0.20	-0.050			
0.1474	9433.60	3.9720	3.9720	-0.8844	24.84	-0.20	-0.050			
0.1483	9490.70	3.9710	3.9709	-0.8816	24.84	-0.20	-0.050			
0.1492	9547.24	3.9700	3.9702	-0.8793	24.84	-0.20	-0.050			
0.1501	9603.41	3.9690	3.9689	-0.8753	24.84	-0.20	-0.050			
0.1509	9658.66	3.9680	3.9680	-0.8691	24.85	-0.19	-0.050			
0.1518	9714.12	3.9670	3.9670	-0.8651	24.86	-0.18	-0.050			
0.1526	9769.45	3.9660	3.9658	-0.8602	24.86	-0.18	-0.050			
0.1535	9825.49	3.9650	3.9650	-0.8515	24.86	-0.18	-0.050			
0.1544	9880.21	3.9640	3.9639	-0.8440	24.86	-0.18	-0.050			
0.1552	9934.51	3.9630	3.9631	-0.8374	24.86	-0.18	-0.050			
0.1561	9987.48	3.9620	3.9620	-0.8311	24.86	-0.18	-0.050			
0.1569	10040.70	3.9610	3.9610	-0.8244	24.87	-0.17	-0.050			
0.1577	10092.12	3.9600	3.9601	-0.8224	24.87	-0.17	-0.050			
0.1585	10144.40	3.9590	3.9592	-0.8191	24.87	-0.17	-0.050			
0.1593	10196.21	3.9580	3.9580	-0.8169	24.88	-0.16	-0.050			
0.1601	10246.96	3.9570	3.9571	-0.8168	24.88	-0.16	-0.050	0.361	0.519	
0.1609	10298.04	3.9560	3.9563	-0.8148	24.88	-0.16	-0.050			
0.1617	10349.26	3.9550	3.9545	-0.8147	24.88	-0.16	-0.050			
0.1625	10399.90	3.9540	3.9538	-0.8175	24.88	-0.16	-0.050			
0.1633	10450.49	3.9530	3.9529	-0.8176	24.89	-0.15	-0.050			
0.1641	10502.36	3.9520	3.9520	-0.8215	24.89	-0.15	-0.050			
0.1649	10554.19	3.9510	3.9506	-0.8264	24.90	-0.14	-0.050			
0.1657	10606.36	3.9500	3.9500	-0.8287	24.90	-0.14	-0.050			
0.1666	10659.47	3.9490	3.9492	-0.8356	24.90	-0.14	-0.050			
0.1674	10713.35	3.9480	3.9479	-0.8419	24.90	-0.14	-0.050			
0.1683	10768.66	3.9470	3.9470	-0.8480	24.90	-0.14	-0.050			
0.1691	10823.92	3.9460	3.9460	-0.8550	24.91	-0.13	-0.050			
0.1700	10879.74	3.9450	3.9448	-0.8626	24.92	-0.12	-0.050			
0.1709	10937.16	3.9440	3.9441	-0.8655	24.91	-0.13	-0.050			
0.1718	10992.39	3.9430	3.9429	-0.8669	24.92	-0.12	-0.050			
0.1726	11048.04	3.9420	3.9420	-0.8700	24.92	-0.12	-0.050			
0.1735	11103.98	3.9410	3.9410	-0.8718	24.92	-0.12	-0.050			
0.1744	11159.67	3.9400	3.9398	-0.8721	24.92	-0.12	-0.050			
0.1752	11215.76	3.9390	3.9390	-0.8738	24.92	-0.12	-0.050			
0.1761	11272.02	3.9380	3.9379	-0.8759	24.92	-0.12	-0.050			
0.1770	11328.51	3.9370	3.9369	-0.8754	24.92	-0.12	-0.050			
0.1779	11384.79	3.9360	3.9359	-0.8762	24.92	-0.12	-0.050			
0.1788	11441.26	3.9350	3.9351	-0.8749	24.90	-0.14	-0.050			
0.1797	11497.66	3.9340	3.9340	-0.8726	24.90	-0.14	-0.050			
0.1805	11553.46	3.9330	3.9327	-0.8718	24.90	-0.14	-0.050			
0.1814	11609.34	3.9320	3.9320	-0.8713	24.90	-0.14	-0.050			
0.1823	11665.03	3.9310	3.9310	-0.8704	24.90	-0.14	-0.050			
0.1831	11720.96	3.9300	3.9299	-0.8686	24.90	-0.14	-0.050			
0.1840	11775.98	3.9290	3.9292	-0.8685	24.89	-0.15	-0.050			
0.1849	11831.58	3.9280	3.9279	-0.8676	24.90	-0.14	-0.050			
0.1857	11887.44	3.9270	3.9270	-0.8671	24.88	-0.16	-0.050			
0.1866	11942.50	3.9260	3.9262	-0.8672	24.88	-0.16	-0.050			
0.1875	11997.75	3.9250	3.9247	-0.8662	24.88	-0.16	-0.050			
0.1883	12053.28	3.9240	3.9238	-0.8669	24.88	-0.16	-0.050			
0.1892	12108.15	3.9230	3.9230	-0.8660	24.87	-0.17	-0.050			
0.1900	12162.74	3.9220	3.9220	-0.8649	24.87	-0.17	-0.050			
0.1909	12217.58	3.9210	3.9211	-0.8674	24.86	-0.18	-0.050			
0.1918	12273.19	3.9200	3.9197	-0.8688	24.86	-0.18	-0.050			
0.1926	12328.29	3.9190	3.9191	-0.8710	24.86	-0.18	-0.050			
0.1935	12384.19	3.9180	3.9181	-0.8731	24.86	-0.18	-0.050			
0.1944	12440.14	3.9170	3.9169	-0.8757	24.86	-0.18	-0.050			
0.1953	12496.28	3.9160	3.9160	-0.8777	24.86	-0.18	-0.050			
0.1961	12552.96	3.9150	3.9151	-0.8820	24.85	-0.19	-0.050			
0.1970	12609.58	3.9140	3.9140	-0.8832	24.85	-0.19	-0.050			
0.1979	12666.76	3.9130	3.9129	-0.8824	24.85	-0.19	-0.050			
0.1988	12723.19	3.9120	3.9120	-0.8836	24.84	-0.20	-0.050			
0.1997	12778.56	3.9110	3.9111	-0.8911	24.84	-0.20	-0.050			
0.2005	12834.31	3.9100	3.9099	-0.8989	24.84	-0.20	-0.050			
0.2014	12891.17	3.9090	3.9091	-0.9032	24.86	-0.18	-0.050			
0.2023	12949.48	3.9080	3.9079	-0.9093	24.86	-0.18	-0.050			
0.2032	13007.79	3.9070	3.9070	-0.9154	24.86	-0.18	-0.050			
0.2042	13066.54	3.9060	3.9060	-0.9187	24.86	-0.18	-0.050			
0.2051	13126.20	3.9050	3.9050	-0.9214	24.86	-0.18	-0.050			
0.2060	13186.06	3.9040	3.9039	-0.9246	24.86	-0.18	-0.050			
0.2070	13247.08	3.9030	3.9027	-0.9234	24.87	-0.17	-0.050			
0.2079	13306.65	3.9020	3.9018	-0.9238	24.88	-0.16	-0.050			
0.2089	13366.64	3.9010	3.9013	-0.9242	24.87	-0.17	-0.050			
0.2098	13426.63	3.9000	3.9002	-0.9226	24.88	-0.16	-0.050			
0.2107	13486.68	3.8990	3.8991	-0.9223	24.88	-0.16	-0.050			
0.2117	13546.67	3.8980	3.8981	-0.9201	24.89	-0.15	-0.050			
0.2126	13606.42	3.8970	3.8969	-0.9184	24.90	-0.14	-0.050			
0.2135	13665.41	3.8960	3.8961	-0.9154	24.90	-0.14	-0.050			
0.2145	13725.79	3.8950	3.8950	-0.9079	24.90	-0.14	-0.050			
0.2154	13785.25	3.8940	3.8939	-0.8974	24.90	-0.14	-0.050			
0.2163	13843.66	3.8930	3.8928	-0.8863	24.92	-0.12	-0.050			
0.2172	13899.59	3.8920	3.8920	-0.8748	24.92	-0.12	-0.050			
0.2180	13953.30	3.8910	3.8909	-0.8604	24.92	-0.12	-0.050			
0.2189	14007.73	3.8900	3.8900	-0.8523	24.92	-0.12	-0.050			
0.2197	14061.10	3.8890	3.8892	-0.8489	24.93	-0.11	-0.050			
0.2205	14114.60	3.8880	3.8880	-0.8458	24.94	-0.10	-0.050	0.475	0.720	
0.2214	14166.93	3.8870	3.8873	-0.8453	24.94	-0.10	-0.050			
0.2222	14219.61	3.8860	3.8862	-0.8438	24.94	-0.10	-0.050			
0.2230	14272.60	3.8850	3.8852	-0.8415	24.95	-0.09	-0.050			
0.2238	14324.86	3.8840	3.8836	-0.8444	24.95	-0.09	-0.050			
0.2247	14377.80	3.8830	3.8829	-0.8434	24.96	-0.08	-0.050			
0.2255	14430.97	3.8820	3.8818	-0.8451	24.96	-0.08	-0.050			
0.2263	14484.47	3.8810	3.8807	-0.8462	24.96	-0.08	-0.050			
0.2271	14537.43	3.8800	3.8801	-0.8484	24.96	-0.08	-0.050			
0.2280	14591.12	3.8790	3.8788	-0.8546	24.96	-0.08	-0.050			
0.2288	14645.74	3.8780	3.8781	-0.8605	24.97	-0.07	-0.050			
0.2297	14701.31	3.8770	3.8772	-0.8653	24.98	-0.06	-0.050			
0.2306	14758.17	3.8760	3.8761	-0.8733	24.98	-0.06	-0.050			
0.2315	14816.82	3.8750	3.8752	-0.8780	24.98	-0.06	-0.050			
0.2324	14875.59	3.8740	3.8739	-0.8833	24.98	-0.06	-0.050			
0.2333	14933.07	3.8730	3.8730	-0.8829	24.99	-0.05	-0.050			
0.2342	14989.74	3.8720	3.8720	-0.8820	25.00	-0.04	-0.050			
0.2351	15046.13	3.8710	3.8709	-0.8813	25.00	-0.04	-0.050			
0.2360	15101.86	3.8700	3.8702	-0.8815	25.00	-0.04	-0.050			
0.2368	15157.35	3.8690	3.8689	-0.8811	25.00	-0.04	-0.050			
0.2377	15212.91	3.8680	3.8682	-0.8817	25.01	-0.03	-0.050			
0.2386	15269.04	3.8670	3.8669	-0.8833	25.02	-0.02	-0.050			
0.2395	15325.46	3.8660	3.8662	-0.8836	25.02	-0.02	-0.050			
0.2404	15382.47	3.8650	3.8648	-0.8844	25.02	-0.02	-0.050	0.562	0.645	
0.2412	15439.49	3.8640	3.8636	-0.8835	25.02	-0.02	-0.050			
0.2421	15496.92	3.8630	3.8631	-0.8845	25.02	-0.02	-0.050			
0.2430	15554.04	3.8620	3.8617	-0.8811	25.02	-0.02	-0.050			
0.2439	15610.64	3.8610	3.8611	-0.8798	25.03	-0.01	-0.050			
0.2448	15666.56	3.8600	3.8599	-0.8786	25.04	-0.00	-0.050			
0.2457	15722.44	3.8590	3.8590	-0.8754	25.03	-0.01	-0.050			
0.2465	15778.57	3.8580	3.8582	-0.8756	25.04	0.00	-0.050			
0.2474	15834.95	3.8570	3.8569	-0.8775	25.04	0.00	-0.050			
0.2483	15891.99	3.8560	3.8561	-0.8755	25.04	0.00	-0.050			
0.2492	15948.93	3.8550	3.8550	-0.8755	25.04	0.00	-0.050			
0.2501	16005.04	3.8540	3.8540	-0.8729	25.04	0.00	-0.050			
0.2509	16060.43	3.8530	3.8531	-0.8703	25.04	0.00	-0.050			
0.2518	16115.11	3.8520	3.8518	-0.8666	25.03	-0.01	-0.050			
0.2527	16170.60	3.8510	3.8510	-0.8643	25.02	-0.02	-0.050			
0.2535	16224.65	3.8500	3.8499	-0.8609	25.02	-0.02	-0.050			
0.2544	16279.30	3.8490	3.8489	-0.8588	25.02	-0.02	-0.050			
