Relative time (s)	Voltage (V)	Temperature (°C)	
18.251	3.0546	26.67	
78.251	3.0732	26.61	
138.251	3.0805	26.58	
198.251	3.0857	26.53	
258.251	3.0893	26.47	
318.251	3.0921	26.42	
378.251	3.0949	26.35	
438.251	3.0971	26.29	
498.251	3.0992	26.24	
558.251	3.1012	26.17	
618.251	3.1028	26.12	
678.251	3.1045	26.10	
738.251	3.1063	26.03	
798.251	3.1078	25.97	
858.251	3.1093	25.96	
903.323	3.1105	25.91	
