Relative time (s)	Voltage (V)	Temperature (°C)	
54.880	3.1448	26.61	
114.880	3.1570	26.55	
174.880	3.1632	26.46	
234.880	3.1679	26.39	
294.880	3.1709	26.28	
354.880	3.1738	26.24	
414.880	3.1755	26.17	
474.880	3.1777	26.11	
534.880	3.1792	26.07	
594.880	3.1809	26.01	
654.880	3.1822	25.97	
714.880	3.1833	25.92	
774.880	3.1846	25.90	
834.880	3.1860	25.87	
894.880	3.1870	25.83	
903.308	3.1868	25.83	
