Ah_balance (normalized)	Ah_balance (mAh)	Voltage - fit (V)	Voltage -  interpolate (V)	dQ/dV (1/V)	Temperature (°C)	Temperature - diff (°C)	Current (C)	R_DC 0ms (mOhm)	R_DC 50ms (mOhm)	R_DC 50 ms PEC (mOhm)
-0.0000	-0.09	4.1880	4.1961	-0.4046	25.19	0.00	-0.049			
0.0004	26.69	4.1870	4.1869	-0.4428	25.19	-0.00	-0.050			
0.0009	56.44	4.1860	4.1858	-0.4853	25.18	-0.01	-0.050			
0.0014	88.79	4.1850	4.1847	-0.5139	25.18	-0.01	-0.050			
0.0019	123.19	4.1840	4.1837	-0.5394	25.18	-0.01	-0.050			
0.0025	159.05	4.1830	4.1827	-0.5604	25.17	-0.02	-0.050			
0.0031	196.38	4.1820	4.1820	-0.5790	25.16	-0.03	-0.050			
0.0037	235.23	4.1810	4.1808	-0.5949	25.15	-0.04	-0.050			
0.0043	274.16	4.1800	4.1797	-0.6083	25.15	-0.04	-0.050			
0.0049	313.63	4.1790	4.1789	-0.6213	25.15	-0.04	-0.050			
0.0055	354.40	4.1780	4.1780	-0.6328	25.15	-0.04	-0.050			
0.0062	395.54	4.1770	4.1770	-0.6440	25.15	-0.04	-0.050			
0.0069	440.28	4.1760	4.1759	-0.6589	25.15	-0.04	-0.050			
0.0075	483.00	4.1750	4.1749	-0.6656	25.15	-0.04	-0.050			
0.0082	526.82	4.1740	4.1741	-0.6731	25.15	-0.04	-0.050			
0.0089	570.54	4.1730	4.1730	-0.6793	25.16	-0.03	-0.050			
0.0096	613.66	4.1720	4.1721	-0.6870	25.18	-0.01	-0.050			
0.0103	657.50	4.1710	4.1710	-0.6934	25.18	-0.01	-0.050			
0.0110	702.40	4.1700	4.1701	-0.7005	25.18	-0.01	-0.050			
0.0117	747.54	4.1690	4.1691	-0.7071	25.19	-0.00	-0.050			
0.0124	793.08	4.1680	4.1681	-0.7125	25.19	0.00	-0.050			
0.0131	838.92	4.1670	4.1671	-0.7192	25.19	0.00	-0.050			
0.0138	885.07	4.1660	4.1659	-0.7246	25.19	0.00	-0.050			
0.0146	932.04	4.1650	4.1650	-0.7304	25.20	0.01	-0.050			
0.0153	978.90	4.1640	4.1640	-0.7346	25.20	0.01	-0.050			
0.0160	1026.63	4.1630	4.1629	-0.7397	25.19	0.00	-0.050			
0.0168	1074.85	4.1620	4.1620	-0.7436	25.19	0.00	-0.050			
0.0176	1123.67	4.1610	4.1610	-0.7454	25.18	-0.01	-0.050			
0.0183	1172.55	4.1600	4.1600	-0.7457	25.17	-0.02	-0.050			
0.0191	1220.59	4.1590	4.1591	-0.7453	25.16	-0.03	-0.050			
0.0198	1268.81	4.1580	4.1581	-0.7459	25.15	-0.04	-0.050			
0.0206	1317.16	4.1570	4.1571	-0.7474	25.15	-0.04	-0.050			
0.0213	1365.12	4.1560	4.1560	-0.7479	25.14	-0.05	-0.050			
0.0221	1412.98	4.1550	4.1551	-0.7504	25.13	-0.06	-0.050			
0.0228	1460.64	4.1540	4.1540	-0.7516	25.12	-0.07	-0.050			
0.0236	1508.37	4.1530	4.1530	-0.7520	25.11	-0.08	-0.050			
0.0243	1556.06	4.1520	4.1518	-0.7508	25.10	-0.09	-0.050			
0.0250	1602.98	4.1510	4.1509	-0.7521	25.09	-0.10	-0.050			
0.0258	1651.14	4.1500	4.1500	-0.7537	25.07	-0.12	-0.050			
0.0265	1698.87	4.1490	4.1489	-0.7550	25.07	-0.12	-0.050			
0.0273	1747.18	4.1480	4.1479	-0.7573	25.07	-0.12	-0.050			
0.0281	1795.47	4.1470	4.1469	-0.7599	25.07	-0.12	-0.050			
0.0288	1843.46	4.1460	4.1460	-0.7635	25.07	-0.12	-0.050			
0.0296	1892.21	4.1450	4.1451	-0.7667	25.07	-0.12	-0.050			
0.0303	1941.75	4.1440	4.1441	-0.7707	25.07	-0.12	-0.050			
0.0311	1991.68	4.1430	4.1430	-0.7740	25.07	-0.12	-0.050			
0.0319	2041.82	4.1420	4.1418	-0.7778	25.06	-0.13	-0.050			
0.0327	2092.34	4.1410	4.1410	-0.7810	25.05	-0.14	-0.050			
0.0335	2143.25	4.1400	4.1399	-0.7829	25.05	-0.14	-0.050			
0.0343	2193.81	4.1390	4.1389	-0.7845	25.05	-0.14	-0.050			
0.0351	2244.29	4.1380	4.1381	-0.7846	25.04	-0.15	-0.050			
0.0358	2294.21	4.1370	4.1369	-0.7857	25.03	-0.16	-0.050			
0.0366	2344.17	4.1360	4.1362	-0.7871	25.03	-0.16	-0.050			
0.0374	2394.78	4.1350	4.1350	-0.7874	25.02	-0.17	-0.050			
0.0382	2444.87	4.1340	4.1339	-0.7887	25.02	-0.17	-0.050			
0.0390	2495.52	4.1330	4.1331	-0.7904	25.01	-0.18	-0.050			
0.0398	2546.18	4.1320	4.1320	-0.7930	25.01	-0.18	-0.050	0.453	0.515	
0.0406	2596.08	4.1310	4.1309	-0.7954	25.01	-0.18	-0.050			
0.0413	2646.22	4.1300	4.1300	-0.7998	25.01	-0.18	-0.050			
0.0421	2697.44	4.1290	4.1291	-0.8033	25.03	-0.16	-0.050			
0.0429	2748.23	4.1280	4.1278	-0.8051	25.03	-0.16	-0.050			
0.0438	2800.36	4.1270	4.1269	-0.8084	25.04	-0.15	-0.050			
0.0446	2852.80	4.1260	4.1260	-0.8083	25.05	-0.14	-0.050			
0.0454	2905.81	4.1250	4.1251	-0.8084	25.06	-0.13	-0.050			
0.0462	2958.28	4.1240	4.1238	-0.8090	25.07	-0.12	-0.050			
0.0470	3010.96	4.1230	4.1230	-0.8095	25.10	-0.09	-0.050			
0.0479	3063.78	4.1220	4.1219	-0.8086	25.10	-0.09	-0.050			
0.0487	3115.76	4.1210	4.1211	-0.8080	25.11	-0.08	-0.050			
0.0495	3167.65	4.1200	4.1200	-0.8082	25.12	-0.07	-0.050			
0.0503	3219.40	4.1190	4.1192	-0.8090	25.13	-0.06	-0.050			
0.0511	3271.12	4.1180	4.1182	-0.8086	25.13	-0.06	-0.050			
0.0519	3322.74	4.1170	4.1172	-0.8070	25.13	-0.06	-0.050			
0.0527	3373.46	4.1160	4.1161	-0.8075	25.14	-0.05	-0.050			
0.0535	3424.82	4.1150	4.1150	-0.8077	25.14	-0.05	-0.050			
0.0543	3476.13	4.1140	4.1138	-0.8075	25.15	-0.04	-0.050			
0.0551	3527.04	4.1130	4.1129	-0.8068	25.15	-0.04	-0.050			
0.0559	3577.58	4.1120	4.1121	-0.8060	25.15	-0.04	-0.050			
0.0567	3628.35	4.1110	4.1110	-0.8069	25.16	-0.03	-0.050			
0.0575	3679.21	4.1100	4.1101	-0.8087	25.18	-0.01	-0.050			
0.0583	3731.12	4.1090	4.1089	-0.8127	25.18	-0.01	-0.050			
0.0591	3783.59	4.1080	4.1083	-0.8161	25.19	-0.00	-0.050			
0.0599	3836.38	4.1070	4.1070	-0.8205	25.19	0.00	-0.050	0.452	0.740	
0.0608	3889.99	4.1060	4.1060	-0.8250	25.20	0.01	-0.050			
0.0616	3943.46	4.1050	4.1051	-0.8288	25.21	0.02	-0.050			
0.0625	3996.93	4.1040	4.1039	-0.8298	25.20	0.01	-0.050			
0.0633	4049.99	4.1030	4.1030	-0.8300	25.21	0.02	-0.050			
0.0641	4103.25	4.1020	4.1021	-0.8317	25.20	0.01	-0.050			
0.0650	4156.93	4.1010	4.1010	-0.8315	25.19	0.00	-0.050			
0.0658	4210.30	4.1000	4.0999	-0.8300	25.19	0.00	-0.050			
0.0666	4263.98	4.0990	4.0990	-0.8304	25.19	0.00	-0.050			
0.0675	4317.09	4.0980	4.0979	-0.8289	25.19	0.00	-0.050			
0.0683	4370.16	4.0970	4.0970	-0.8307	25.19	0.00	-0.050			
0.0691	4422.93	4.0960	4.0960	-0.8320	25.18	-0.01	-0.050			
0.0699	4475.41	4.0950	4.0950	-0.8346	25.19	-0.00	-0.050			
0.0708	4528.98	4.0940	4.0940	-0.8359	25.18	-0.01	-0.050			
0.0716	4582.50	4.0930	4.0930	-0.8363	25.19	-0.00	-0.050			
0.0724	4635.83	4.0920	4.0920	-0.8378	25.19	0.00	-0.050			
0.0733	4688.65	4.0910	4.0908	-0.8398	25.18	-0.01	-0.050			
0.0741	4741.97	4.0900	4.0900	-0.8413	25.18	-0.01	-0.050			
0.0749	4796.15	4.0890	4.0888	-0.8430	25.18	-0.01	-0.050			
0.0758	4850.20	4.0880	4.0879	-0.8454	25.18	-0.01	-0.050			
0.0766	4904.37	4.0870	4.0870	-0.8466	25.17	-0.02	-0.050			
0.0775	4959.23	4.0860	4.0861	-0.8480	25.16	-0.03	-0.050			
0.0784	5014.53	4.0850	4.0851	-0.8473	25.15	-0.04	-0.050			
0.0792	5069.81	4.0840	4.0839	-0.8473	25.15	-0.04	-0.050			
0.0801	5124.70	4.0830	4.0829	-0.8456	25.16	-0.03	-0.050			
0.0809	5179.29	4.0820	4.0821	-0.8442	25.16	-0.03	-0.050			
0.0818	5234.40	4.0810	4.0811	-0.8447	25.16	-0.03	-0.050			
0.0826	5288.17	4.0800	4.0799	-0.8437	25.17	-0.02	-0.050			
0.0835	5341.88	4.0790	4.0791	-0.8431	25.17	-0.02	-0.050			
0.0843	5394.81	4.0780	4.0779	-0.8423	25.16	-0.03	-0.050			
0.0851	5447.77	4.0770	4.0771	-0.8392	25.16	-0.03	-0.050			
0.0860	5501.01	4.0760	4.0761	-0.8383	25.15	-0.04	-0.050			
0.0868	5553.57	4.0750	4.0748	-0.8390	25.15	-0.04	-0.050			
0.0876	5607.12	4.0740	4.0739	-0.8405	25.15	-0.04	-0.050			
0.0885	5660.81	4.0730	4.0731	-0.8418	25.13	-0.06	-0.050			
0.0893	5714.05	4.0720	4.0716	-0.8398	25.14	-0.05	-0.050			
0.0901	5767.47	4.0710	4.0710	-0.8425	25.15	-0.04	-0.050			
0.0910	5820.96	4.0700	4.0700	-0.8446	25.15	-0.04	-0.050			
0.0918	5875.48	4.0690	4.0690	-0.8469	25.15	-0.04	-0.050			
0.0927	5930.36	4.0680	4.0680	-0.8481	25.15	-0.04	-0.050			
0.0935	5984.97	4.0670	4.0670	-0.8505	25.15	-0.04	-0.050			
0.0944	6039.88	4.0660	4.0659	-0.8528	25.15	-0.04	-0.050			
0.0952	6095.59	4.0650	4.0652	-0.8546	25.15	-0.04	-0.050			
0.0961	6150.95	4.0640	4.0640	-0.8547	25.15	-0.04	-0.050			
0.0970	6205.59	4.0630	4.0628	-0.8542	25.15	-0.04	-0.050			
0.0978	6259.82	4.0620	4.0621	-0.8556	25.15	-0.04	-0.050			
0.0987	6314.56	4.0610	4.0610	-0.8550	25.15	-0.04	-0.050			
0.0995	6368.64	4.0600	4.0601	-0.8553	25.15	-0.04	-0.050			
0.1004	6423.15	4.0590	4.0591	-0.8560	25.15	-0.04	-0.050			
0.1012	6477.38	4.0580	4.0578	-0.8587	25.14	-0.05	-0.050			
0.1021	6531.34	4.0570	4.0570	-0.8631	25.14	-0.05	-0.050			
0.1029	6586.41	4.0560	4.0561	-0.8671	25.13	-0.06	-0.050			
0.1038	6641.27	4.0550	4.0549	-0.8689	25.11	-0.08	-0.050			
0.1046	6697.23	4.0540	4.0541	-0.8717	25.11	-0.08	-0.050			
0.1055	6754.16	4.0530	4.0529	-0.8723	25.11	-0.08	-0.050			
0.1064	6810.87	4.0520	4.0520	-0.8726	25.10	-0.09	-0.050			
0.1073	6867.49	4.0510	4.0508	-0.8690	25.10	-0.09	-0.050			
0.1082	6923.91	4.0500	4.0500	-0.8698	25.10	-0.09	-0.050			
0.1091	6980.06	4.0490	4.0492	-0.8702	25.09	-0.10	-0.050			
0.1099	7036.50	4.0480	4.0479	-0.8701	25.08	-0.11	-0.050			
0.1108	7092.35	4.0470	4.0472	-0.8693	25.08	-0.11	-0.050			
0.1117	7148.28	4.0460	4.0461	-0.8677	25.07	-0.12	-0.050			
0.1126	7204.03	4.0450	4.0450	-0.8666	25.07	-0.12	-0.050			
0.1134	7258.88	4.0440	4.0443	-0.8676	25.07	-0.12	-0.050			
0.1143	7314.09	4.0430	4.0427	-0.8653	25.07	-0.12	-0.050			
0.1151	7368.53	4.0420	4.0419	-0.8629	25.07	-0.12	-0.050			
0.1160	7423.33	4.0410	4.0409	-0.8628	25.07	-0.12	-0.050			
0.1168	7477.71	4.0400	4.0398	-0.8641	25.07	-0.12	-0.050			
0.1177	7531.70	4.0390	4.0390	-0.8628	25.07	-0.12	-0.050			
0.1185	7586.06	4.0380	4.0380	-0.8646	25.08	-0.11	-0.050			
0.1194	7640.64	4.0370	4.0370	-0.8644	25.08	-0.11	-0.050			
0.1203	7696.45	4.0360	4.0362	-0.8679	25.09	-0.10	-0.050			
0.1211	7752.37	4.0350	4.0349	-0.8724	25.10	-0.09	-0.050			
0.1220	7808.94	4.0340	4.0340	-0.8755	25.10	-0.09	-0.050			
0.1229	7865.86	4.0330	4.0330	-0.8799	25.10	-0.09	-0.050			
0.1238	7922.97	4.0320	4.0319	-0.8827	25.11	-0.08	-0.050			
0.1247	7979.94	4.0310	4.0311	-0.8829	25.11	-0.08	-0.050			
0.1256	8036.12	4.0300	4.0300	-0.8822	25.11	-0.08	-0.050			
0.1265	8093.00	4.0290	4.0290	-0.8832	25.11	-0.08	-0.050			
0.1273	8149.61	4.0280	4.0281	-0.8847	25.11	-0.08	-0.050			
0.1282	8206.34	4.0270	4.0271	-0.8862	25.11	-0.08	-0.050			
0.1291	8263.25	4.0260	4.0261	-0.8877	25.11	-0.08	-0.050			
0.1300	8319.40	4.0250	4.0250	-0.8886	25.11	-0.08	-0.050			
0.1309	8375.63	4.0240	4.0242	-0.8903	25.11	-0.08	-0.050			
0.1318	8432.09	4.0230	4.0230	-0.8932	25.11	-0.08	-0.050			
0.1326	8489.35	4.0220	4.0219	-0.8975	25.10	-0.09	-0.050			
0.1335	8546.00	4.0210	4.0209	-0.9000	25.10	-0.09	-0.050			
0.1344	8603.44	4.0200	4.0199	-0.9035	25.10	-0.09	-0.050			
0.1353	8661.34	4.0190	4.0190	-0.9059	25.09	-0.10	-0.050			
0.1362	8719.42	4.0180	4.0179	-0.9083	25.07	-0.12	-0.050			
0.1372	8778.59	4.0170	4.0171	-0.9103	25.08	-0.11	-0.050			
0.1381	8837.48	4.0160	4.0158	-0.9131	25.07	-0.12	-0.050			
0.1390	8896.82	4.0150	4.0150	-0.9121	25.07	-0.12	-0.050			
0.1400	8957.06	4.0140	4.0139	-0.9092	25.05	-0.14	-0.050			
0.1409	9015.94	4.0130	4.0130	-0.9090	25.05	-0.14	-0.050			
0.1418	9074.97	4.0120	4.0121	-0.9087	25.04	-0.15	-0.050			
0.1427	9133.27	4.0110	4.0111	-0.9078	25.04	-0.15	-0.050			
0.1436	9191.83	4.0100	4.0100	-0.9055	25.03	-0.16	-0.050			
0.1445	9249.29	4.0090	4.0091	-0.9046	25.03	-0.16	-0.050			
0.1454	9306.73	4.0080	4.0081	-0.9013	25.01	-0.18	-0.050			
0.1463	9363.36	4.0070	4.0070	-0.9020	25.01	-0.18	-0.050			
0.1472	9420.63	4.0060	4.0059	-0.9011	25.01	-0.18	-0.050			
0.1481	9476.52	4.0050	4.0047	-0.9006	25.00	-0.19	-0.050			
0.1490	9533.28	4.0040	4.0039	-0.9017	24.99	-0.20	-0.050			
0.1498	9589.88	4.0030	4.0028	-0.9021	24.98	-0.21	-0.050			
0.1507	9647.63	4.0020	4.0019	-0.9027	25.00	-0.19	-0.050			
0.1516	9704.86	4.0010	4.0011	-0.9047	25.00	-0.19	-0.050			
0.1525	9762.59	4.0000	3.9999	-0.9089	25.01	-0.18	-0.050			
0.1535	9821.51	3.9990	3.9990	-0.9105	25.02	-0.17	-0.050			
0.1544	9880.15	3.9980	3.9978	-0.9150	25.03	-0.16	-0.050			
0.1553	9939.29	3.9970	3.9972	-0.9191	25.03	-0.16	-0.050			
0.1562	9998.88	3.9960	3.9958	-0.9226	25.05	-0.14	-0.050			
0.1572	10059.20	3.9950	3.9951	-0.9228	25.05	-0.14	-0.050			
0.1581	10119.06	3.9940	3.9940	-0.9262	25.07	-0.12	-0.050			
0.1590	10178.33	3.9930	3.9931	-0.9263	25.07	-0.12	-0.050			
0.1600	10237.07	3.9920	3.9920	-0.9260	25.09	-0.10	-0.050			
0.1609	10296.33	3.9910	3.9911	-0.9274	25.10	-0.09	-0.050			
0.1618	10355.98	3.9900	3.9900	-0.9290	25.10	-0.09	-0.050			
0.1627	10413.85	3.9890	3.9890	-0.9333	25.11	-0.08	-0.050			
0.1636	10472.86	3.9880	3.9880	-0.9366	25.11	-0.08	-0.050			
0.1646	10532.42	3.9870	3.9871	-0.9382	25.11	-0.08	-0.050			
0.1655	10592.22	3.9860	3.9861	-0.9404	25.12	-0.07	-0.050			
0.1665	10653.74	3.9850	3.9850	-0.9399	25.13	-0.06	-0.050			
0.1674	10714.71	3.9840	3.9840	-0.9405	25.13	-0.06	-0.050			
0.1684	10776.09	3.9830	3.9829	-0.9402	25.14	-0.05	-0.050			
0.1693	10837.01	3.9820	3.9819	-0.9395	25.15	-0.04	-0.050			
0.1703	10897.66	3.9810	3.9809	-0.9371	25.14	-0.05	-0.050			
0.1712	10958.20	3.9800	3.9798	-0.9353	25.15	-0.04	-0.050			
0.1722	11018.43	3.9790	3.9793	-0.9370	25.15	-0.04	-0.050			
0.1731	11078.49	3.9780	3.9781	-0.9342	25.15	-0.04	-0.050			
0.1740	11137.82	3.9770	3.9772	-0.9350	25.15	-0.04	-0.050			
0.1750	11197.66	3.9760	3.9762	-0.9341	25.13	-0.06	-0.050			
0.1759	11257.01	3.9750	3.9750	-0.9356	25.12	-0.07	-0.050			
0.1768	11316.46	3.9740	3.9738	-0.9337	25.11	-0.08	-0.050			
0.1777	11374.79	3.9730	3.9730	-0.9328	25.10	-0.09	-0.050			
0.1787	11433.66	3.9720	3.9717	-0.9326	25.10	-0.09	-0.050			
0.1796	11491.77	3.9710	3.9710	-0.9337	25.10	-0.09	-0.050			
0.1805	11550.89	3.9700	3.9699	-0.9359	25.10	-0.09	-0.050	0.459	0.491	
0.1814	11609.76	3.9690	3.9691	-0.9352	25.09	-0.10	-0.050			
0.1823	11670.19	3.9680	3.9677	-0.9400	25.10	-0.09	-0.050			
0.1833	11731.08	3.9670	3.9671	-0.9435	25.10	-0.09	-0.050			
0.1843	11792.55	3.9660	3.9658	-0.9471	25.10	-0.09	-0.050			
0.1852	11854.49	3.9650	3.9650	-0.9515	25.11	-0.08	-0.050			
0.1862	11916.04	3.9640	3.9638	-0.9537	25.11	-0.08	-0.050			
0.1871	11977.52	3.9630	3.9630	-0.9552	25.11	-0.08	-0.050			
0.1881	12038.79	3.9620	3.9619	-0.9568	25.13	-0.06	-0.050			
0.1891	12100.42	3.9610	3.9612	-0.9573	25.13	-0.06	-0.050			
0.1900	12161.02	3.9600	3.9600	-0.9593	25.14	-0.05	-0.050			
0.1910	12221.47	3.9590	3.9591	-0.9610	25.15	-0.04	-0.050			
0.1919	12282.85	3.9580	3.9578	-0.9645	25.15	-0.04	-0.050			
0.1929	12343.94	3.9570	3.9571	-0.9662	25.16	-0.03	-0.050			
0.1938	12405.79	3.9560	3.9560	-0.9686	25.17	-0.02	-0.050			
0.1948	12468.36	3.9550	3.9550	-0.9692	25.17	-0.02	-0.050			
0.1958	12530.35	3.9540	3.9540	-0.9716	25.17	-0.02	-0.050			
0.1968	12592.74	3.9530	3.9526	-0.9727	25.18	-0.01	-0.050			
0.1977	12655.03	3.9520	3.9520	-0.9735	25.18	-0.01	-0.050			
0.1987	12717.80	3.9510	3.9508	-0.9745	25.18	-0.01	-0.050			
0.1997	12781.17	3.9500	3.9500	-0.9743	25.18	-0.01	-0.050	0.605	0.310	
0.2007	12844.85	3.9490	3.9490	-0.9750	25.18	-0.01	-0.050			
0.2017	12908.33	3.9480	3.9482	-0.9717	25.18	-0.01	-0.050			
0.2027	12971.32	3.9470	3.9470	-0.9702	25.18	-0.01	-0.050			
0.2037	13033.77	3.9460	3.9460	-0.9697	25.18	-0.01	-0.050			
0.2046	13095.80	3.9450	3.9449	-0.9685	25.16	-0.03	-0.050			
0.2056	13157.63	3.9440	3.9441	-0.9655	25.15	-0.04	-0.050			
0.2066	13219.21	3.9430	3.9430	-0.9625	25.15	-0.04	-0.050			
0.2075	13280.41	3.9420	3.9420	-0.9588	25.14	-0.05	-0.050			
0.2084	13340.17	3.9410	3.9411	-0.9596	25.13	-0.06	-0.050			
0.2094	13399.65	3.9400	3.9402	-0.9604	25.11	-0.08	-0.050			
0.2103	13460.19	3.9390	3.9389	-0.9600	25.11	-0.08	-0.050			
0.2113	13521.32	3.9380	3.9377	-0.9616	25.10	-0.09	-0.050			
0.2122	13583.05	3.9370	3.9371	-0.9620	25.09	-0.10	-0.050			
0.2132	13644.74	3.9360	3.9360	-0.9642	25.08	-0.11	-0.050			
0.2142	13706.64	3.9350	3.9351	-0.9656	25.08	-0.11	-0.050			
0.2151	13767.94	3.9340	3.9339	-0.9673	25.08	-0.11	-0.050			
0.2161	13829.76	3.9330	3.9327	-0.9710	25.07	-0.12	-0.050			
0.2171	13892.29	3.9320	3.9320	-0.9733	25.09	-0.10	-0.050			
0.2181	13955.42	3.9310	3.9310	-0.9753	25.09	-0.10	-0.050			
0.2190	14018.71	3.9300	3.9303	-0.9790	25.09	-0.10	-0.050			
0.2200	14082.23	3.9290	3.9290	-0.9833	25.07	-0.12	-0.050	0.328	0.521	
0.2210	14145.19	3.9280	3.9280	-0.9835	25.08	-0.11	-0.050			
0.2220	14208.00	3.9270	3.9268	-0.9823	25.09	-0.10	-0.050			
0.2230	14270.25	3.9260	3.9259	-0.9843	25.10	-0.09	-0.050			
0.2239	14332.41	3.9250	3.9251	-0.9899	25.10	-0.09	-0.050			
0.2249	14395.50	3.9240	3.9239	-0.9933	25.10	-0.09	-0.050			
0.2259	14458.78	3.9230	3.9233	-0.9965	25.10	-0.09	-0.050			
0.2269	14523.03	3.9220	3.9220	-0.9961	25.10	-0.09	-0.050			
0.2279	14587.06	3.9210	3.9209	-0.9933	25.10	-0.09	-0.050			
0.2289	14651.46	3.9200	3.9201	-0.9941	25.10	-0.09	-0.050			
0.2299	14716.47	3.9190	3.9190	-0.9930	25.10	-0.09	-0.050			
0.2310	14781.04	3.9180	3.9181	-0.9941	25.10	-0.09	-0.050			
0.2320	14845.07	3.9170	3.9169	-0.9930	25.11	-0.08	-0.050			
0.2329	14908.50	3.9160	3.9158	-0.9928	25.11	-0.08	-0.050			
0.2339	14972.45	3.9150	3.9153	-0.9918	25.10	-0.09	-0.050			
0.2349	15035.38	3.9140	3.9141	-0.9920	25.10	-0.09	-0.050			
0.2359	15098.63	3.9130	3.9132	-0.9918	25.10	-0.09	-0.050			
0.2369	15162.43	3.9120	3.9122	-0.9911	25.10	-0.09	-0.050			
0.2379	15225.74	3.9110	3.9109	-0.9905	25.09	-0.10	-0.050			
0.2389	15288.71	3.9100	3.9098	-0.9879	25.07	-0.12	-0.050			
0.2399	15351.57	3.9090	3.9089	-0.9859	25.08	-0.11	-0.050			
0.2409	15414.51	3.9080	3.9079	-0.9843	25.08	-0.11	-0.050			
0.2418	15476.63	3.9070	3.9069	-0.9836	25.07	-0.12	-0.050			
0.2428	15538.16	3.9060	3.9062	-0.9824	25.09	-0.10	-0.050			
0.2438	15600.25	3.9050	3.9049	-0.9823	25.08	-0.11	-0.050			
0.2448	15664.15	3.9040	3.9042	-0.9850	25.07	-0.12	-0.050			
0.2457	15727.44	3.9030	3.9031	-0.9881	25.07	-0.12	-0.050			
0.2467	15791.76	3.9020	3.9018	-0.9927	25.06	-0.13	-0.050			
0.2477	15855.56	3.9010	3.9011	-0.9962	25.05	-0.14	-0.050			
0.2487	15918.83	3.9000	3.8999	-0.9993	25.05	-0.14	-0.050			
0.2497	15981.88	3.8990	3.8990	-1.0001	25.05	-0.14	-0.050			
0.2507	16044.82	3.8980	3.8979	-1.0031	25.04	-0.15	-0.050			
0.2517	16109.24	3.8970	3.8970	-1.0046	25.04	-0.15	-0.050			
0.2527	16173.68	3.8960	3.8961	-1.0059	25.03	-0.16	-0.050			
0.2537	16238.25	3.8950	3.8949	-1.0088	25.04	-0.15	-0.050			
0.2547	16302.68	3.8940	3.8940	-1.0122	25.05	-0.14	-0.050			
0.2558	16368.33	3.8930	3.8930	-1.0155	25.06	-0.13	-0.050			
0.2568	16433.58	3.8920	3.8918	-1.0192	25.07	-0.12	-0.050			
0.2578	16499.35	3.8910	3.8911	-1.0222	25.08	-0.11	-0.050			
0.2588	16565.29	3.8900	3.8901	-1.0240	25.09	-0.10	-0.050			
0.2599	16631.62	3.8890	3.8890	-1.0253	25.10	-0.09	-0.050			
0.2609	16699.03	3.8880	3.8882	-1.0218	25.10	-0.09	-0.050			
0.2620	16765.06	3.8870	3.8870	-1.0197	25.10	-0.09	-0.050			
0.2630	16830.34	3.8860	3.8857	-1.0189	25.10	-0.09	-0.050			
0.2640	16896.10	3.8850	3.8852	-1.0143	25.08	-0.11	-0.050			
0.2650	16961.89	3.8840	3.8841	-1.0125	25.07	-0.12	-0.050			
0.2660	17026.13	3.8830	3.8830	-1.0091	25.07	-0.12	-0.050			
0.2670	17089.94	3.8820	3.8821	-1.0081	25.07	-0.12	-0.050			
0.2680	17153.30	3.8810	3.8810	-1.0061	25.05	-0.14	-0.050			
0.2690	17216.73	3.8800	3.8803	-1.0042	25.05	-0.14	-0.050			
0.2700	17281.20	3.8790	3.8790	-1.0020	25.05	-0.14	-0.050			
0.2710	17344.75	3.8780	3.8780	-1.0009	25.05	-0.14	-0.050			
0.2720	17408.12	3.8770	3.8769	-1.0040	25.05	-0.14	-0.050			
0.2730	17471.81	3.8760	3.8761	-1.0063	25.04	-0.15	-0.050			
0.2740	17534.87	3.8750	3.8750	-1.0052	25.04	-0.15	-0.050			
0.2750	17599.62	3.8740	3.8738	-1.0065	25.05	-0.14	-0.050			
0.2760	17663.66	3.8730	3.8730	-1.0068	25.05	-0.14	-0.050			
0.2770	17727.73	3.8720	3.8720	-1.0083	25.06	-0.13	-0.050			
0.2780	17792.99	3.8710	3.8711	-1.0107	25.07	-0.12	-0.050			
0.2790	17858.40	3.8700	3.8702	-1.0133	25.07	-0.12	-0.050			
0.2801	17924.15	3.8690	3.8690	-1.0158	25.07	-0.12	-0.050			
0.2811	17990.02	3.8680	3.8680	-1.0189	25.07	-0.12	-0.050			
0.2821	18055.30	3.8670	3.8671	-1.0183	25.08	-0.11	-0.050			
0.2831	18120.64	3.8660	3.8661	-1.0190	25.10	-0.09	-0.050			
0.2842	18186.43	3.8650	3.8651	-1.0210	25.10	-0.09	-0.050			
0.2852	18250.56	3.8640	3.8639	-1.0256	25.10	-0.09	-0.050			
0.2862	18314.88	3.8630	3.8629	-1.0276	25.10	-0.09	-0.050			
0.2872	18380.47	3.8620	3.8622	-1.0278	25.10	-0.09	-0.050			
0.2882	18446.76	3.8610	3.8609	-1.0284	25.10	-0.09	-0.050			
0.2893	18514.47	3.8600	3.8598	-1.0281	25.10	-0.09	-0.050			
0.2903	18580.75	3.8590	3.8591	-1.0267	25.10	-0.09	-0.050			
0.2914	18647.26	3.8580	3.8579	-1.0223	25.09	-0.10	-0.050			
0.2924	18712.36	3.8570	3.8568	-1.0202	25.10	-0.09	-0.050			
0.2934	18778.76	3.8560	3.8562	-1.0188	25.10	-0.09	-0.050			
