Relative time (s)	Voltage (V)	Temperature (°C)	
4.660	3.1385	26.52	
64.660	3.2359	26.54	
124.660	3.2657	26.50	
184.660	3.2829	26.43	
244.660	3.2945	26.36	
304.660	3.3029	26.30	
364.660	3.3093	26.22	
424.660	3.3144	26.16	
484.660	3.3187	26.10	
544.660	3.3219	26.04	
604.660	3.3249	26.00	
664.660	3.3274	25.94	
724.660	3.3295	25.90	
784.660	3.3312	25.85	
844.660	3.3330	25.80	
903.306	3.3347	25.76	
