Ah_balance (normalized)	Ah_balance (mAh)	Voltage - fit (V)	Voltage -  interpolate (V)	dQ/dV (1/V)	Temperature (°C)	Temperature - diff (°C)	Current (C)	R_DC 0ms (mOhm)	R_DC 50ms (mOhm)	R_DC 50 ms PEC (mOhm)
0.1963	12565.11	3.9290	3.9289	-0.0759	25.85	0.00	-1.500			
0.1966	12582.21	3.9260	3.9257	-0.1022	25.85	0.00	-1.500			
0.1970	12604.85	3.9230	3.9229	-0.1283	25.85	0.00	-1.500			
0.1974	12631.84	3.9200	3.9201	-0.1528	25.85	0.00	-1.500			
0.1979	12663.76	3.9170	3.9170	-0.1764	25.85	0.00	-1.500			
0.1984	12700.11	3.9140	3.9140	-0.1982	25.85	0.00	-1.500			
0.1991	12741.18	3.9110	3.9109	-0.2199	25.85	0.00	-1.500			
0.1998	12785.30	3.9080	3.9081	-0.2410	25.85	0.00	-1.500			
0.2005	12833.48	3.9050	3.9050	-0.2624	25.85	0.00	-1.500			
0.2013	12885.97	3.9020	3.9019	-0.2831	25.85	0.00	-1.500			
0.2022	12942.76	3.8990	3.8990	-0.3013	25.85	0.00	-1.500			
0.2032	13002.32	3.8960	3.8961	-0.3215	25.85	0.00	-1.500			
0.2042	13066.66	3.8930	3.8930	-0.3413	25.85	0.00	-1.500			
0.2052	13133.73	3.8900	3.8900	-0.3602	25.85	0.00	-1.500			
0.2063	13204.84	3.8870	3.8869	-0.3775	25.85	0.00	-1.500			
0.2075	13278.98	3.8840	3.8841	-0.3959	25.85	0.00	-1.500			
0.2087	13357.21	3.8810	3.8810	-0.4141	25.85	0.00	-1.500			
0.2100	13438.45	3.8780	3.8781	-0.4321	25.85	0.00	-1.500			
0.2113	13522.78	3.8750	3.8749	-0.4483	25.85	0.00	-1.500			
0.2127	13611.04	3.8720	3.8720	-0.4642	25.85	0.00	-1.500			
0.2141	13702.44	3.8690	3.8690	-0.4763	25.85	0.00	-1.500			
0.2156	13795.67	3.8660	3.8661	-0.4885	25.85	0.00	-1.500			
0.2170	13890.84	3.8630	3.8631	-0.4998	25.85	0.00	-1.500			
0.2186	13987.69	3.8600	3.8599	-0.5107	25.85	0.00	-1.500			
0.2201	14086.56	3.8570	3.8570	-0.5189	25.85	0.00	-1.500			
0.2217	14187.37	3.8540	3.8540	-0.5286	25.85	0.00	-1.500			
0.2233	14290.23	3.8510	3.8511	-0.5406	25.85	0.00	-1.500			
0.2249	14395.29	3.8480	3.8480	-0.5496	25.85	0.00	-1.500			
0.2266	14502.59	3.8450	3.8449	-0.5551	25.85	0.00	-1.500			
0.2283	14609.85	3.8420	3.8420	-0.5594	25.85	0.00	-1.500			
0.2300	14718.09	3.8390	3.8391	-0.5630	25.86	0.01	-1.500			
0.2317	14826.59	3.8360	3.8361	-0.5667	25.86	0.01	-1.500			
0.2334	14935.38	3.8330	3.8329	-0.5699	25.86	0.01	-1.500			
0.2351	15044.41	3.8300	3.8300	-0.5725	25.86	0.01	-1.500			
0.2368	15154.47	3.8270	3.8270	-0.5785	25.86	0.01	-1.500			
0.2385	15266.52	3.8240	3.8240	-0.5845	25.87	0.02	-1.500			
0.2403	15379.75	3.8210	3.8209	-0.5903	25.87	0.02	-1.500			
0.2421	15493.92	3.8180	3.8180	-0.5947	25.87	0.02	-1.500			
0.2439	15608.82	3.8150	3.8150	-0.5971	25.87	0.02	-1.500			
0.2457	15724.23	3.8120	3.8120	-0.5987	25.87	0.02	-1.500			
0.2475	15839.53	3.8090	3.8090	-0.6004	25.88	0.03	-1.500			
0.2493	15954.20	3.8060	3.8060	-0.6035	25.88	0.03	-1.500			
0.2511	16070.28	3.8030	3.8030	-0.6068	25.88	0.03	-1.500			
0.2529	16186.93	3.8000	3.7999	-0.6104	25.89	0.04	-1.500			
0.2548	16305.16	3.7970	3.7971	-0.6157	25.89	0.04	-1.500			
0.2566	16423.99	3.7940	3.7939	-0.6179	25.90	0.05	-1.500			
0.2585	16543.58	3.7910	3.7910	-0.6198	25.90	0.05	-1.500			
0.2604	16662.57	3.7880	3.7880	-0.6209	25.90	0.05	-1.500			
0.2622	16781.73	3.7850	3.7850	-0.6203	25.91	0.06	-1.500			
0.2641	16900.73	3.7820	3.7821	-0.6235	25.91	0.06	-1.500			
0.2659	17020.28	3.7790	3.7790	-0.6260	25.92	0.07	-1.500			
0.2678	17139.89	3.7760	3.7760	-0.6318	25.92	0.07	-1.500			
0.2697	17262.40	3.7730	3.7730	-0.6371	25.93	0.08	-1.500			
0.2717	17385.71	3.7700	3.7700	-0.6411	25.93	0.08	-1.500			
0.2736	17509.07	3.7670	3.7669	-0.6446	25.94	0.09	-1.500			
0.2755	17633.65	3.7640	3.7642	-0.6510	25.94	0.09	-1.500			
0.2775	17758.30	3.7610	3.7610	-0.6543	25.94	0.09	-1.500			
0.2794	17884.26	3.7580	3.7579	-0.6594	25.95	0.10	-1.500			
0.2814	18011.23	3.7550	3.7550	-0.6635	25.95	0.10	-1.500			
0.2834	18139.75	3.7520	3.7520	-0.6679	25.96	0.11	-1.500			
0.2854	18268.04	3.7490	3.7490	-0.6712	25.96	0.11	-1.500			
0.2875	18396.95	3.7460	3.7460	-0.6750	25.96	0.11	-1.500			
0.2895	18526.74	3.7430	3.7429	-0.6784	25.97	0.12	-1.500			
0.2915	18656.60	3.7400	3.7401	-0.6844	25.97	0.12	-1.500			
0.2936	18789.00	3.7370	3.7370	-0.6923	25.98	0.13	-1.500			
0.2957	18923.86	3.7340	3.7340	-0.6987	25.98	0.13	-1.500			
0.2978	19058.88	3.7310	3.7310	-0.7042	25.98	0.13	-1.500			
0.2999	19194.10	3.7280	3.7281	-0.7066	25.99	0.14	-1.500			
0.3020	19330.18	3.7250	3.7249	-0.7122	25.99	0.14	-1.500			
0.3042	19466.98	3.7220	3.7220	-0.7180	26.00	0.15	-1.500			
0.3063	19604.32	3.7190	3.7190	-0.7245	26.00	0.15	-1.500			
0.3085	19743.45	3.7160	3.7161	-0.7327	26.01	0.16	-1.500			
0.3107	19886.49	3.7130	3.7129	-0.7417	26.01	0.16	-1.500			
0.3129	20028.63	3.7100	3.7100	-0.7516	26.02	0.17	-1.500			
0.3152	20175.45	3.7070	3.7070	-0.7574	26.02	0.17	-1.500			
0.3175	20320.84	3.7040	3.7040	-0.7639	26.02	0.17	-1.500			
0.3198	20468.53	3.7010	3.7010	-0.7697	26.03	0.18	-1.500			
0.3221	20617.15	3.6980	3.6981	-0.7748	26.03	0.18	-1.500			
0.3245	20766.75	3.6950	3.6949	-0.7775	26.04	0.19	-1.500			
0.3268	20916.59	3.6920	3.6920	-0.7797	26.04	0.19	-1.500			
0.3291	21063.58	3.6890	3.6891	-0.7889	26.05	0.20	-1.500			
0.3315	21216.72	3.6860	3.6859	-0.8017	26.05	0.20	-1.500			
0.3339	21370.49	3.6830	3.6829	-0.8096	26.06	0.21	-1.500			
0.3364	21527.84	3.6800	3.6800	-0.8212	26.06	0.21	-1.500			
0.3389	21688.07	3.6770	3.6771	-0.8304	26.07	0.22	-1.500			
0.3414	21849.22	3.6740	3.6739	-0.8380	26.07	0.22	-1.500			
0.3439	22010.32	3.6710	3.6710	-0.8460	26.08	0.23	-1.500			
0.3464	22172.57	3.6680	3.6680	-0.8483	26.08	0.23	-1.500			
0.3490	22335.28	3.6650	3.6650	-0.8595	26.09	0.24	-1.500			
0.3516	22501.25	3.6620	3.6619	-0.8681	26.09	0.24	-1.500			
0.3542	22668.52	3.6590	3.6591	-0.8762	26.10	0.25	-1.500			
0.3568	22837.39	3.6560	3.6560	-0.8859	26.10	0.25	-1.500			
0.3595	23008.36	3.6530	3.6530	-0.8945	26.10	0.25	-1.500			
0.3622	23180.77	3.6500	3.6499	-0.9045	26.11	0.26	-1.500			
0.3649	23354.23	3.6470	3.6471	-0.9193	26.11	0.26	-1.500			
0.3677	23533.05	3.6440	3.6439	-0.9229	26.12	0.27	-1.500			
0.3705	23712.62	3.6410	3.6410	-0.9341	26.12	0.27	-1.500			
0.3733	23892.35	3.6380	3.6380	-0.9423	26.13	0.28	-1.500			
0.3761	24073.20	3.6350	3.6351	-0.9495	26.13	0.28	-1.500			
0.3790	24256.05	3.6320	3.6319	-0.9599	26.14	0.29	-1.500			
0.3819	24439.09	3.6290	3.6290	-0.9681	26.14	0.29	-1.500			
0.3848	24626.15	3.6260	3.6260	-0.9771	26.15	0.30	-1.500			
0.3878	24816.99	3.6230	3.6230	-0.9970	26.15	0.30	-1.500			
0.3908	25009.95	3.6200	3.6200	-1.0080	26.16	0.31	-1.500			
0.3938	25204.78	3.6170	3.6170	-1.0190	26.17	0.32	-1.500			
0.3969	25401.41	3.6140	3.6139	-1.0314	26.17	0.32	-1.500			
0.4000	25600.15	3.6110	3.6112	-1.0447	26.18	0.33	-1.500			
0.4032	25802.28	3.6080	3.6079	-1.0553	26.18	0.33	-1.500			
0.4063	26006.39	3.6050	3.6050	-1.0665	26.19	0.34	-1.500			
0.4095	26210.48	3.6020	3.6020	-1.0763	26.19	0.34	-1.500			
0.4128	26418.31	3.5990	3.5990	-1.0919	26.20	0.35	-1.500			
0.4161	26630.83	3.5960	3.5960	-1.1065	26.21	0.36	-1.500			
0.4194	26843.81	3.5930	3.5930	-1.1222	26.21	0.36	-1.500			
0.4228	27061.00	3.5900	3.5900	-1.1374	26.22	0.37	-1.500			
0.4263	27281.40	3.5870	3.5870	-1.1557	26.22	0.37	-1.500			
0.4298	27504.17	3.5840	3.5840	-1.1741	26.23	0.38	-1.500			
0.4333	27731.68	3.5810	3.5810	-1.1828	26.23	0.38	-1.500			
0.4369	27958.95	3.5780	3.5780	-1.2012	26.24	0.39	-1.500			
0.4405	28193.54	3.5750	3.5751	-1.2176	26.24	0.39	-1.500			
0.4442	28426.63	3.5720	3.5718	-1.2341	26.25	0.40	-1.500			
0.4479	28665.23	3.5690	3.5690	-1.2527	26.26	0.41	-1.500			
0.4517	28907.23	3.5660	3.5660	-1.2700	26.26	0.41	-1.500			
0.4555	29153.38	3.5630	3.5629	-1.2885	26.27	0.42	-1.500			
0.4594	29404.30	3.5600	3.5601	-1.3086	26.27	0.42	-1.500			
0.4634	29656.86	3.5570	3.5569	-1.3244	26.28	0.43	-1.500			
0.4674	29915.98	3.5540	3.5540	-1.3343	26.29	0.44	-1.500			
0.4714	30170.08	3.5510	3.5509	-1.3419	26.29	0.44	-1.500			
0.4754	30428.59	3.5480	3.5483	-1.3606	26.30	0.45	-1.500			
0.4795	30690.95	3.5450	3.5449	-1.3732	26.31	0.46	-1.500			
0.4837	30954.47	3.5420	3.5419	-1.3935	26.32	0.47	-1.500			
0.4878	31222.11	3.5390	3.5391	-1.4148	26.33	0.48	-1.500			
0.4922	31499.60	3.5360	3.5360	-1.4508	26.33	0.48	-1.500			
0.4966	31780.61	3.5330	3.5330	-1.4687	26.34	0.49	-1.500			
0.5010	32063.70	3.5300	3.5300	-1.4860	26.35	0.50	-1.500			
0.5055	32351.62	3.5270	3.5270	-1.5098	26.36	0.51	-1.500			
0.5101	32649.06	3.5240	3.5240	-1.5225	26.37	0.52	-1.500			
0.5147	32941.11	3.5210	3.5206	-1.5277	26.38	0.53	-1.500	0.373	0.557	
0.5193	33236.26	3.5180	3.5180	-1.5327	26.39	0.54	-1.500			
0.5239	33528.57	3.5150	3.5150	-1.5434	26.40	0.55	-1.500			
0.5285	33823.72	3.5120	3.5119	-1.5544	26.41	0.56	-1.500			
0.5331	34120.32	3.5090	3.5090	-1.5758	26.42	0.57	-1.500			
0.5379	34426.44	3.5060	3.5059	-1.5856	26.43	0.58	-1.500			
0.5427	34734.96	3.5030	3.5030	-1.6032	26.44	0.59	-1.500			
0.5476	35049.24	3.5000	3.5000	-1.6041	26.45	0.60	-1.500			
0.5525	35357.94	3.4970	3.4970	-1.6064	26.47	0.62	-1.500			
0.5572	35660.20	3.4940	3.4941	-1.6081	26.48	0.63	-1.500			
0.5621	35971.99	3.4910	3.4909	-1.6092	26.49	0.64	-1.500			
0.5669	36278.74	3.4880	3.4880	-1.6065	26.50	0.65	-1.500			
0.5718	36592.06	3.4850	3.4849	-1.6106	26.51	0.66	-1.500			
0.5766	36902.26	3.4820	3.4821	-1.6071	26.52	0.67	-1.500			
0.5814	37212.50	3.4790	3.4790	-1.6016	26.54	0.69	-1.500			
0.5862	37516.92	3.4760	3.4760	-1.5851	26.56	0.71	-1.500			
0.5909	37819.27	3.4730	3.4730	-1.5651	26.58	0.73	-1.500			
0.5957	38123.19	3.4700	3.4700	-1.5616	26.59	0.74	-1.500			
0.6003	38419.60	3.4670	3.4672	-1.5466	26.61	0.76	-1.500			
0.6049	38715.04	3.4640	3.4640	-1.5359	26.62	0.77	-1.500			
0.6095	39006.64	3.4610	3.4610	-1.5299	26.64	0.79	-1.500			
0.6140	39298.79	3.4580	3.4580	-1.5170	26.65	0.80	-1.500			
0.6186	39592.75	3.4550	3.4550	-1.5049	26.66	0.81	-1.500			
0.6231	39881.05	3.4520	3.4519	-1.4880	26.67	0.82	-1.500			
0.6276	40166.29	3.4490	3.4489	-1.4696	26.69	0.84	-1.500			
0.6319	40444.36	3.4460	3.4460	-1.4554	26.71	0.86	-1.500			
0.6363	40722.11	3.4430	3.4430	-1.4291	26.73	0.88	-1.500			
0.6405	40994.07	3.4400	3.4400	-1.4041	26.75	0.90	-1.500			
0.6448	41265.12	3.4370	3.4370	-1.3892	26.77	0.92	-1.500			
0.6489	41530.39	3.4340	3.4339	-1.3695	26.79	0.94	-1.500			
0.6530	41789.34	3.4310	3.4310	-1.3449	26.80	0.95	-1.500			
0.6569	42043.06	3.4280	3.4280	-1.3301	26.82	0.97	-1.500			
0.6608	42293.53	3.4250	3.4251	-1.3186	26.84	0.99	-1.500			
0.6649	42550.46	3.4220	3.4219	-1.3045	26.86	1.01	-1.500			
0.6688	42800.53	3.4190	3.4190	-1.2854	26.87	1.02	-1.500			
0.6726	43047.78	3.4160	3.4160	-1.2650	26.89	1.04	-1.500			
0.6764	43289.37	3.4130	3.4131	-1.2382	26.91	1.06	-1.500			
0.6801	43524.93	3.4100	3.4100	-1.2116	26.92	1.07	-1.500			
0.6836	43753.03	3.4070	3.4070	-1.1868	26.94	1.09	-1.500			
0.6871	43975.95	3.4040	3.4040	-1.1599	26.96	1.11	-1.500			
0.6906	44199.59	3.4010	3.4009	-1.1410	26.98	1.13	-1.500			
0.6940	44417.01	3.3980	3.3980	-1.1140	27.00	1.15	-1.500			
0.6973	44628.77	3.3950	3.3950	-1.0837	27.01	1.16	-1.500			
0.7006	44835.76	3.3920	3.3921	-1.0537	27.02	1.17	-1.500			
0.7037	45034.24	3.3890	3.3890	-1.0172	27.04	1.19	-1.500			
0.7066	45224.53	3.3860	3.3860	-0.9826	27.05	1.20	-1.500			
0.7095	45409.61	3.3830	3.3830	-0.9520	27.07	1.22	-1.500			
0.7123	45588.86	3.3800	3.3800	-0.9290	27.08	1.23	-1.500			
0.7151	45764.61	3.3770	3.3770	-0.9004	27.09	1.24	-1.500			
0.7177	45935.65	3.3740	3.3740	-0.8746	27.11	1.26	-1.500			
0.7203	46100.76	3.3710	3.3711	-0.8503	27.12	1.27	-1.500			
0.7228	46261.48	3.3680	3.3680	-0.8267	27.13	1.28	-1.500			
0.7253	46417.08	3.3650	3.3651	-0.8043	27.14	1.29	-1.500			
0.7276	46567.88	3.3620	3.3620	-0.7818	27.15	1.30	-1.500			
0.7299	46716.22	3.3590	3.3590	-0.7629	27.16	1.31	-1.500			
0.7322	46862.13	3.3560	3.3560	-0.7413	27.17	1.32	-1.500			
0.7344	47002.74	3.3530	3.3530	-0.7201	27.19	1.34	-1.500			
0.7365	47138.11	3.3500	3.3500	-0.6973	27.20	1.35	-1.500			
0.7386	47268.83	3.3470	3.3469	-0.6772	27.21	1.36	-1.500			
0.7406	47396.73	3.3440	3.3440	-0.6579	27.22	1.37	-1.500			
0.7425	47520.77	3.3410	3.3410	-0.6422	27.23	1.38	-1.500			
0.7444	47642.59	3.3380	3.3380	-0.6278	27.24	1.39	-1.500			
0.7463	47761.98	3.3350	3.3349	-0.6137	27.24	1.39	-1.500			
0.7481	47878.20	3.3320	3.3320	-0.5981	27.25	1.40	-1.500			
0.7499	47992.12	3.3290	3.3291	-0.5818	27.26	1.41	-1.500			
0.7516	48102.19	3.3260	3.3260	-0.5664	27.27	1.42	-1.500			
0.7533	48209.84	3.3230	3.3230	-0.5519	27.28	1.43	-1.500			
0.7549	48313.29	3.3200	3.3200	-0.5359	27.29	1.44	-1.500			
0.7565	48414.49	3.3170	3.3170	-0.5234	27.29	1.44	-1.500			
0.7580	48513.40	3.3140	3.3140	-0.5119	27.30	1.45	-1.500			
0.7595	48610.80	3.3110	3.3111	-0.5012	27.31	1.46	-1.500			
0.7610	48706.97	3.3080	3.3079	-0.4902	27.32	1.47	-1.500			
0.7625	48799.59	3.3050	3.3050	-0.4771	27.33	1.48	-1.500			
0.7639	48890.00	3.3020	3.3020	-0.4651	27.34	1.49	-1.500			
0.7653	48978.02	3.2990	3.2990	-0.4526	27.34	1.49	-1.500			
0.7666	49063.41	3.2960	3.2960	-0.4409	27.35	1.50	-1.500			
0.7679	49146.66	3.2930	3.2930	-0.4308	27.36	1.51	-1.500			
0.7692	49228.82	3.2900	3.2900	-0.4214	27.37	1.52	-1.500			
0.7704	49308.62	3.2870	3.2870	-0.4129	27.37	1.52	-1.500			
0.7717	49386.78	3.2840	3.2840	-0.4038	27.38	1.53	-1.500			
0.7729	49463.98	3.2810	3.2810	-0.3935	27.39	1.54	-1.500			
0.7740	49538.91	3.2780	3.2779	-0.3840	27.39	1.54	-1.500			
0.7752	49611.24	3.2750	3.2751	-0.3747	27.40	1.55	-1.500			
0.7763	49681.51	3.2720	3.2720	-0.3670	27.41	1.56	-1.500			
0.7774	49751.43	3.2690	3.2689	-0.3585	27.41	1.56	-1.500			
0.7784	49819.15	3.2660	3.2660	-0.3512	27.42	1.57	-1.500			
0.7795	49886.34	3.2630	3.2631	-0.3450	27.43	1.58	-1.500			
0.7805	49952.58	3.2600	3.2600	-0.3392	27.44	1.59	-1.500			
0.7815	50016.69	3.2570	3.2570	-0.3308	27.44	1.59	-1.500			
0.7825	50079.01	3.2540	3.2540	-0.3233	27.45	1.60	-1.500			
0.7834	50140.50	3.2510	3.2509	-0.3164	27.46	1.61	-1.500			
0.7844	50201.01	3.2480	3.2480	-0.3113	27.46	1.61	-1.500			
0.7853	50259.67	3.2450	3.2451	-0.3039	27.47	1.62	-1.500			
0.7862	50317.50	3.2420	3.2419	-0.2995	27.48	1.63	-1.500			
0.7871	50374.35	3.2390	3.2390	-0.2944	27.48	1.63	-1.500			
0.7880	50430.04	3.2360	3.2360	-0.2898	27.49	1.64	-1.500			
0.7888	50485.20	3.2330	3.2330	-0.2852	27.50	1.65	-1.500			
0.7897	50540.10	3.2300	3.2300	-0.2805	27.50	1.65	-1.500			
0.7905	50593.39	3.2270	3.2271	-0.2745	27.51	1.66	-1.500			
0.7913	50645.88	3.2240	3.2240	-0.2699	27.52	1.67	-1.500			
0.7921	50696.89	3.2210	3.2210	-0.2648	27.52	1.67	-1.500			
0.7929	50746.92	3.2180	3.2180	-0.2602	27.53	1.68	-1.500			
0.7937	50796.32	3.2150	3.2151	-0.2556	27.54	1.69	-1.500			
0.7945	50844.99	3.2120	3.2120	-0.2529	27.54	1.69	-1.500			
0.7952	50893.34	3.2090	3.2091	-0.2492	27.55	1.70	-1.500			
0.7960	50940.86	3.2060	3.2059	-0.2463	27.55	1.70	-1.500			
0.7967	50987.83	3.2030	3.2031	-0.2422	27.56	1.71	-1.500			
0.7974	51034.10	3.2000	3.2000	-0.2389	27.57	1.72	-1.500			
0.7981	51079.62	3.1970	3.1970	-0.2366	27.57	1.72	-1.500			
0.7988	51124.79	3.1940	3.1941	-0.2337	27.58	1.73	-1.500			
0.7995	51169.11	3.1910	3.1909	-0.2299	27.58	1.73	-1.500			
0.8002	51213.04	3.1880	3.1881	-0.2273	27.59	1.74	-1.500			
0.8009	51256.63	3.1850	3.1850	-0.2248	27.60	1.75	-1.500			
0.8016	51299.46	3.1820	3.1820	-0.2213	27.60	1.75	-1.500			
0.8022	51341.85	3.1790	3.1790	-0.2189	27.61	1.76	-1.500			
0.8029	51383.26	3.1760	3.1760	-0.2152	27.61	1.76	-1.500			
0.8035	51424.32	3.1730	3.1731	-0.2126	27.62	1.77	-1.500			
0.8041	51464.82	3.1700	3.1699	-0.2108	27.63	1.78	-1.500			
0.8048	51504.99	3.1670	3.1670	-0.2085	27.63	1.78	-1.500			
0.8054	51544.86	3.1640	3.1639	-0.2061	27.64	1.79	-1.500			
0.8060	51584.24	3.1610	3.1610	-0.2041	27.64	1.79	-1.500			
0.8066	51623.45	3.1580	3.1581	-0.2018	27.65	1.80	-1.500			
0.8072	51661.75	3.1550	3.1550	-0.2000	27.66	1.81	-1.500			
0.8078	51700.08	3.1520	3.1520	-0.1978	27.66	1.81	-1.500			
0.8084	51737.83	3.1490	3.1490	-0.1955	27.67	1.82	-1.500			
0.8090	51774.90	3.1460	3.1460	-0.1936	27.67	1.82	-1.500			
0.8096	51811.95	3.1430	3.1431	-0.1919	27.68	1.83	-1.500			
0.8101	51848.78	3.1400	3.1400	-0.1900	27.68	1.83	-1.500			
0.8107	51885.01	3.1370	3.1370	-0.1880	27.69	1.84	-1.500			
0.8113	51920.97	3.1340	3.1341	-0.1860	27.70	1.85	-1.500			
0.8118	51956.26	3.1310	3.1310	-0.1838	27.70	1.85	-1.500			
0.8124	51991.52	3.1280	3.1280	-0.1824	27.71	1.86	-1.500			
0.8129	52026.17	3.1250	3.1251	-0.1805	27.71	1.86	-1.500			
0.8134	52060.68	3.1220	3.1220	-0.1791	27.72	1.87	-1.500			
0.8140	52094.83	3.1190	3.1189	-0.1783	27.73	1.88	-1.500			
0.8145	52129.06	3.1160	3.1160	-0.1768	27.73	1.88	-1.500			
0.8150	52163.00	3.1130	3.1129	-0.1751	27.74	1.89	-1.500			
0.8156	52196.46	3.1100	3.1100	-0.1735	27.74	1.89	-1.500			
0.8161	52229.58	3.1070	3.1071	-0.1731	27.75	1.90	-1.500			
0.8166	52262.80	3.1040	3.1040	-0.1714	27.75	1.90	-1.500			
0.8171	52295.43	3.1010	3.1009	-0.1701	27.76	1.91	-1.500			
0.8176	52327.99	3.0980	3.0981	-0.1690	27.77	1.92	-1.500			
0.8181	52360.23	3.0950	3.0950	-0.1675	27.77	1.92	-1.500			
0.8186	52392.57	3.0920	3.0919	-0.1663	27.78	1.93	-1.500			
0.8191	52424.32	3.0890	3.0891	-0.1652	27.78	1.93	-1.500			
0.8196	52455.88	3.0860	3.0860	-0.1636	27.79	1.94	-1.500			
0.8201	52486.79	3.0830	3.0829	-0.1622	27.79	1.94	-1.500			
0.8206	52518.06	3.0800	3.0799	-0.1614	27.80	1.95	-1.500			
0.8211	52548.82	3.0770	3.0770	-0.1597	27.80	1.95	-1.500			
0.8216	52579.39	3.0740	3.0740	-0.1587	27.81	1.96	-1.500			
0.8220	52609.88	3.0710	3.0710	-0.1575	27.81	1.96	-1.500			
0.8225	52640.13	3.0680	3.0680	-0.1562	27.82	1.97	-1.500			
0.8230	52669.70	3.0650	3.0651	-0.1549	27.82	1.97	-1.500			
0.8234	52699.35	3.0620	3.0620	-0.1539	27.83	1.98	-1.500			
0.8239	52728.63	3.0590	3.0590	-0.1533	27.83	1.98	-1.500			
0.8243	52758.01	3.0560	3.0559	-0.1524	27.84	1.99	-1.500			
0.8248	52787.23	3.0530	3.0529	-0.1519	27.84	1.99	-1.500			
0.8253	52816.37	3.0500	3.0501	-0.1512	27.85	2.00	-1.500			
0.8257	52845.46	3.0470	3.0470	-0.1502	27.86	2.01	-1.500			
0.8262	52874.44	3.0440	3.0439	-0.1491	27.86	2.01	-1.500			
0.8266	52902.91	3.0410	3.0410	-0.1475	27.87	2.02	-1.500			
0.8270	52930.98	3.0380	3.0380	-0.1464	27.87	2.02	-1.500			
0.8275	52958.82	3.0350	3.0350	-0.1454	27.88	2.03	-1.500			
0.8279	52986.67	3.0320	3.0320	-0.1445	27.89	2.04	-1.500			
0.8283	53014.33	3.0290	3.0289	-0.1437	27.89	2.04	-1.500			
0.8288	53041.71	3.0260	3.0261	-0.1430	27.90	2.05	-1.500			
0.8292	53069.25	3.0230	3.0230	-0.1420	27.91	2.06	-1.500			
0.8296	53096.36	3.0200	3.0200	-0.1418	27.91	2.06	-1.500			
0.8301	53123.52	3.0170	3.0170	-0.1411	27.92	2.07	-1.500			
0.8305	53150.54	3.0140	3.0141	-0.1396	27.92	2.07	-1.500			
0.8309	53177.28	3.0110	3.0109	-0.1387	27.93	2.08	-1.500			
0.8313	53203.96	3.0080	3.0080	-0.1375	27.94	2.09	-1.500			
0.8317	53230.23	3.0050	3.0051	-0.1360	27.94	2.09	-1.499			
0.8321	53256.17	3.0020	3.0020	-0.1340	27.95	2.10	-1.500			
