Ah_balance (normalized)	Ah_balance (mAh)	Voltage - fit (V)	Voltage -  interpolate (V)	dQ/dV (1/V)	Temperature (°C)	Temperature - diff (°C)	Current (C)	R_DC 0ms (mOhm)	R_DC 50ms (mOhm)	R_DC 50 ms PEC (mOhm)
0.1838	11762.79	3.9280	3.9278	-0.0974	25.78	0.00	-1.500			
0.1841	11785.07	3.9250	3.9248	-0.1269	25.78	0.00	-1.500			
0.1846	11812.01	3.9220	3.9220	-0.1527	25.78	0.00	-1.500			
0.1851	11843.82	3.9190	3.9190	-0.1782	25.78	0.00	-1.500			
0.1856	11880.50	3.9160	3.9161	-0.2037	25.78	0.00	-1.500			
0.1863	11922.77	3.9130	3.9129	-0.2284	25.78	0.00	-1.500			
0.1870	11969.14	3.9100	3.9100	-0.2511	25.78	0.00	-1.500			
0.1878	12019.86	3.9070	3.9071	-0.2722	25.78	0.00	-1.500			
0.1887	12074.40	3.9040	3.9041	-0.2940	25.78	0.00	-1.500			
0.1896	12132.93	3.9010	3.9010	-0.3176	25.78	0.00	-1.500			
0.1906	12195.76	3.8980	3.8980	-0.3393	25.78	0.00	-1.500			
0.1916	12263.04	3.8950	3.8949	-0.3601	25.78	0.00	-1.500			
0.1927	12334.27	3.8920	3.8921	-0.3819	25.78	0.00	-1.500			
0.1939	12410.58	3.8890	3.8890	-0.4030	25.78	0.00	-1.500			
0.1952	12490.44	3.8860	3.8860	-0.4205	25.78	0.00	-1.500			
0.1965	12573.35	3.8830	3.8830	-0.4368	25.78	0.00	-1.500			
0.1978	12658.50	3.8800	3.8801	-0.4523	25.78	0.00	-1.500			
0.1992	12747.02	3.8770	3.8770	-0.4684	25.78	0.00	-1.500			
0.2006	12838.44	3.8740	3.8740	-0.4836	25.78	0.00	-1.500			
0.2021	12932.40	3.8710	3.8710	-0.4982	25.78	0.00	-1.500			
0.2036	13029.90	3.8680	3.8680	-0.5130	25.78	0.00	-1.500			
0.2052	13130.70	3.8650	3.8650	-0.5277	25.78	0.00	-1.500			
0.2068	13233.35	3.8620	3.8620	-0.5394	25.78	0.00	-1.500			
0.2084	13338.54	3.8590	3.8590	-0.5507	25.78	0.00	-1.500			
0.2101	13446.07	3.8560	3.8560	-0.5583	25.78	0.00	-1.500			
0.2118	13554.27	3.8530	3.8530	-0.5654	25.78	0.00	-1.500			
0.2135	13663.04	3.8500	3.8500	-0.5733	25.78	0.00	-1.500			
0.2152	13774.37	3.8470	3.8470	-0.5797	25.79	0.01	-1.500			
0.2170	13886.09	3.8440	3.8439	-0.5850	25.79	0.01	-1.500			
0.2187	13999.19	3.8410	3.8410	-0.5894	25.79	0.01	-1.500			
0.2205	14113.17	3.8380	3.8380	-0.5944	25.79	0.01	-1.500			
0.2223	14227.74	3.8350	3.8350	-0.5998	25.79	0.01	-1.500			
0.2241	14342.90	3.8320	3.8320	-0.6032	25.80	0.02	-1.500			
0.2259	14458.41	3.8290	3.8290	-0.6081	25.80	0.02	-1.500			
0.2278	14576.50	3.8260	3.8260	-0.6120	25.80	0.02	-1.500			
0.2296	14694.63	3.8230	3.8230	-0.6142	25.80	0.02	-1.500			
0.2315	14813.12	3.8200	3.8201	-0.6191	25.81	0.03	-1.500			
0.2333	14932.14	3.8170	3.8170	-0.6205	25.81	0.03	-1.500			
0.2352	15051.20	3.8140	3.8140	-0.6216	25.81	0.03	-1.500			
0.2370	15170.91	3.8110	3.8110	-0.6248	25.82	0.04	-1.500			
0.2389	15290.54	3.8080	3.8081	-0.6273	25.82	0.04	-1.500			
0.2408	15412.29	3.8050	3.8050	-0.6309	25.82	0.04	-1.500			
0.2427	15533.92	3.8020	3.8020	-0.6308	25.83	0.05	-1.500			
0.2446	15654.77	3.7990	3.7990	-0.6297	25.83	0.05	-1.500			
0.2465	15775.37	3.7960	3.7961	-0.6350	25.84	0.06	-1.500			
0.2484	15897.05	3.7930	3.7930	-0.6388	25.84	0.06	-1.500			
0.2503	16019.44	3.7900	3.7899	-0.6422	25.85	0.07	-1.500			
0.2523	16144.08	3.7870	3.7871	-0.6440	25.85	0.07	-1.500			
0.2542	16269.33	3.7840	3.7839	-0.6461	25.86	0.08	-1.500			
0.2561	16393.19	3.7810	3.7810	-0.6484	25.86	0.08	-1.500			
0.2581	16516.93	3.7780	3.7781	-0.6497	25.87	0.09	-1.500			
0.2600	16640.71	3.7750	3.7750	-0.6504	25.87	0.09	-1.500			
0.2620	16765.77	3.7720	3.7720	-0.6545	25.87	0.09	-1.500			
0.2640	16893.10	3.7690	3.7689	-0.6577	25.88	0.10	-1.500			
0.2659	17020.76	3.7660	3.7660	-0.6646	25.88	0.10	-1.500			
0.2679	17147.56	3.7630	3.7630	-0.6674	25.89	0.11	-1.500			
0.2699	17275.09	3.7600	3.7601	-0.6707	25.89	0.11	-1.500			
0.2719	17404.45	3.7570	3.7568	-0.6731	25.89	0.11	-1.500			
0.2740	17535.14	3.7540	3.7540	-0.6768	25.90	0.12	-1.500			
0.2760	17665.04	3.7510	3.7511	-0.6805	25.90	0.12	-1.500			
0.2781	17795.85	3.7480	3.7480	-0.6891	25.91	0.13	-1.500			
0.2801	17928.34	3.7450	3.7450	-0.6934	25.91	0.13	-1.500			
0.2822	18062.71	3.7420	3.7419	-0.7005	25.91	0.13	-1.500			
0.2843	18197.17	3.7390	3.7390	-0.7060	25.92	0.14	-1.500			
0.2865	18334.90	3.7360	3.7360	-0.7152	25.92	0.14	-1.500			
0.2886	18473.49	3.7330	3.7330	-0.7153	25.93	0.15	-1.500			
0.2908	18611.20	3.7300	3.7299	-0.7153	25.94	0.16	-1.500			
0.2929	18747.81	3.7270	3.7271	-0.7154	25.95	0.17	-1.500			
0.2951	18884.31	3.7240	3.7241	-0.7197	25.95	0.17	-1.500			
0.2972	19021.67	3.7210	3.7209	-0.7264	25.96	0.18	-1.500			
0.2994	19161.03	3.7180	3.7181	-0.7325	25.97	0.19	-1.500			
0.3016	19302.62	3.7150	3.7149	-0.7434	25.97	0.19	-1.500			
0.3039	19449.17	3.7120	3.7121	-0.7563	25.98	0.20	-1.500			
0.3062	19595.57	3.7090	3.7090	-0.7601	25.99	0.21	-1.500			
0.3085	19741.78	3.7060	3.7060	-0.7686	26.00	0.22	-1.500			
0.3108	19888.74	3.7030	3.7031	-0.7781	26.00	0.22	-1.500			
0.3131	20037.32	3.7000	3.6999	-0.7859	26.01	0.23	-1.500			
0.3155	20190.46	3.6970	3.6970	-0.7952	26.01	0.23	-1.500			
0.3179	20344.31	3.6940	3.6939	-0.8047	26.01	0.23	-1.500			
0.3203	20500.48	3.6910	3.6911	-0.8126	26.02	0.24	-1.500			
0.3228	20657.46	3.6880	3.6880	-0.8232	26.02	0.24	-1.500			
0.3252	20815.40	3.6850	3.6850	-0.8266	26.02	0.24	-1.500			
0.3277	20973.20	3.6820	3.6820	-0.8362	26.03	0.25	-1.500			
0.3303	21136.26	3.6790	3.6790	-0.8481	26.03	0.25	-1.500			
0.3328	21301.82	3.6760	3.6760	-0.8594	26.04	0.26	-1.500			
0.3354	21466.84	3.6730	3.6731	-0.8675	26.04	0.26	-1.500			
0.3381	21635.60	3.6700	3.6700	-0.8741	26.05	0.27	-1.500			
0.3407	21803.30	3.6670	3.6670	-0.8793	26.05	0.27	-1.500			
0.3433	21972.52	3.6640	3.6640	-0.8869	26.06	0.28	-1.500			
0.3460	22141.95	3.6610	3.6610	-0.8964	26.07	0.29	-1.500			
0.3487	22315.33	3.6580	3.6580	-0.9066	26.07	0.29	-1.500			
0.3514	22490.20	3.6550	3.6550	-0.9197	26.08	0.30	-1.500			
0.3542	22668.10	3.6520	3.6520	-0.9306	26.09	0.31	-1.500			
0.3570	22850.02	3.6490	3.6490	-0.9436	26.09	0.31	-1.500			
0.3599	23031.35	3.6460	3.6461	-0.9541	26.10	0.32	-1.500			
0.3628	23216.62	3.6430	3.6430	-0.9620	26.11	0.33	-1.500			
0.3656	23401.38	3.6400	3.6400	-0.9738	26.11	0.33	-1.500			
0.3686	23588.65	3.6370	3.6370	-0.9836	26.12	0.34	-1.500			
0.3715	23777.66	3.6340	3.6340	-0.9966	26.12	0.34	-1.500			
0.3745	23969.75	3.6310	3.6310	-1.0094	26.13	0.35	-1.500			
0.3776	24165.95	3.6280	3.6279	-1.0210	26.14	0.36	-1.500			
0.3807	24363.20	3.6250	3.6250	-1.0273	26.14	0.36	-1.500			
0.3838	24561.51	3.6220	3.6220	-1.0459	26.15	0.37	-1.500			
0.3869	24762.22	3.6190	3.6190	-1.0571	26.15	0.37	-1.500			
0.3901	24967.34	3.6160	3.6159	-1.0722	26.16	0.38	-1.500			
0.3933	25173.10	3.6130	3.6130	-1.0838	26.16	0.38	-1.500			
0.3966	25382.75	3.6100	3.6101	-1.0976	26.17	0.39	-1.500			
0.3999	25596.13	3.6070	3.6070	-1.1193	26.17	0.39	-1.500			
0.4034	25814.73	3.6040	3.6040	-1.1296	26.18	0.40	-1.500			
0.4067	26030.93	3.6010	3.6009	-1.1399	26.18	0.40	-1.500			
0.4102	26249.87	3.5980	3.5983	-1.1594	26.19	0.41	-1.500			
0.4137	26474.51	3.5950	3.5949	-1.1743	26.20	0.42	-1.500			
0.4172	26701.53	3.5920	3.5919	-1.1887	26.20	0.42	-1.500			
0.4208	26930.64	3.5890	3.5890	-1.2029	26.21	0.43	-1.500			
0.4245	27165.20	3.5860	3.5861	-1.2200	26.22	0.44	-1.500			
0.4281	27400.32	3.5830	3.5830	-1.2342	26.23	0.45	-1.500			
0.4318	27635.68	3.5800	3.5800	-1.2473	26.23	0.45	-1.500			
0.4356	27876.62	3.5770	3.5770	-1.2647	26.24	0.46	-1.500			
0.4394	28121.09	3.5740	3.5739	-1.2867	26.25	0.47	-1.500			
0.4433	28371.80	3.5710	3.5710	-1.3011	26.25	0.47	-1.500			
0.4472	28622.76	3.5680	3.5681	-1.3226	26.26	0.48	-1.500			
0.4512	28879.74	3.5650	3.5650	-1.3469	26.27	0.49	-1.500			
0.4553	29138.54	3.5620	3.5621	-1.3654	26.27	0.49	-1.500			
0.4594	29400.82	3.5590	3.5589	-1.3839	26.28	0.50	-1.500			
0.4636	29670.46	3.5560	3.5560	-1.3985	26.29	0.51	-1.500			
0.4678	29940.86	3.5530	3.5531	-1.4180	26.29	0.51	-1.500			
0.4721	30214.92	3.5500	3.5500	-1.4451	26.30	0.52	-1.500			
0.4765	30494.26	3.5470	3.5469	-1.4632	26.31	0.53	-1.500			
0.4809	30776.57	3.5440	3.5439	-1.4827	26.31	0.53	-1.500			
0.4854	31064.24	3.5410	3.5411	-1.5029	26.32	0.54	-1.500			
0.4900	31357.01	3.5380	3.5380	-1.5254	26.33	0.55	-1.500			
0.4946	31652.32	3.5350	3.5350	-1.5475	26.34	0.56	-1.500			
0.4992	31948.90	3.5320	3.5320	-1.5572	26.35	0.57	-1.500			
0.5039	32252.62	3.5290	3.5290	-1.5688	26.36	0.58	-1.500			
0.5087	32554.13	3.5260	3.5260	-1.5827	26.37	0.59	-1.500	0.368	0.539	
0.5134	32857.83	3.5230	3.5231	-1.5999	26.38	0.60	-1.500			
0.5182	33165.31	3.5200	3.5200	-1.6179	26.39	0.61	-1.500			
0.5231	33476.74	3.5170	3.5169	-1.6284	26.40	0.62	-1.500			
0.5280	33790.58	3.5140	3.5140	-1.6375	26.41	0.63	-1.500			
0.5330	34109.73	3.5110	3.5111	-1.6588	26.42	0.64	-1.500			
0.5380	34430.85	3.5080	3.5079	-1.6664	26.43	0.65	-1.500			
0.5430	34752.54	3.5050	3.5050	-1.6656	26.44	0.66	-1.500			
0.5480	35072.90	3.5020	3.5020	-1.6691	26.45	0.67	-1.500			
0.5530	35392.63	3.4990	3.4990	-1.6724	26.46	0.68	-1.500			
0.5580	35714.97	3.4960	3.4959	-1.6707	26.48	0.70	-1.500			
0.5631	36036.04	3.4930	3.4930	-1.6704	26.49	0.71	-1.500			
0.5680	36354.60	3.4900	3.4900	-1.6666	26.50	0.72	-1.500			
0.5731	36675.43	3.4870	3.4869	-1.6661	26.51	0.73	-1.500			
0.5780	36994.36	3.4840	3.4840	-1.6584	26.52	0.74	-1.500			
0.5831	37317.12	3.4810	3.4809	-1.6518	26.54	0.76	-1.500			
0.5880	37631.63	3.4780	3.4781	-1.6408	26.55	0.77	-1.500			
0.5929	37947.47	3.4750	3.4750	-1.6259	26.56	0.78	-1.500			
0.5978	38256.30	3.4720	3.4720	-1.6112	26.57	0.79	-1.500			
0.6026	38563.20	3.4690	3.4690	-1.5930	26.58	0.80	-1.500			
0.6073	38868.85	3.4660	3.4660	-1.5787	26.59	0.81	-1.500			
0.6120	39171.13	3.4630	3.4630	-1.5682	26.61	0.83	-1.500			
0.6167	39471.05	3.4600	3.4600	-1.5508	26.62	0.84	-1.500			
0.6214	39766.72	3.4570	3.4570	-1.5286	26.64	0.86	-1.500			
0.6260	40061.22	3.4540	3.4540	-1.5119	26.65	0.87	-1.500			
0.6304	40348.17	3.4510	3.4510	-1.4904	26.67	0.89	-1.500			
0.6349	40632.14	3.4480	3.4482	-1.4724	26.68	0.90	-1.500			
0.6393	40913.08	3.4450	3.4450	-1.4504	26.70	0.92	-1.500			
0.6436	41187.28	3.4420	3.4420	-1.4309	26.71	0.93	-1.500			
0.6479	41462.74	3.4390	3.4390	-1.4129	26.73	0.95	-1.500			
0.6521	41733.86	3.4360	3.4360	-1.3898	26.74	0.96	-1.500			
0.6562	41997.10	3.4330	3.4329	-1.3675	26.76	0.98	-1.500			
0.6602	42254.96	3.4300	3.4302	-1.3523	26.77	0.99	-1.500			
0.6643	42513.80	3.4270	3.4270	-1.3368	26.79	1.01	-1.500			
0.6683	42769.64	3.4240	3.4238	-1.3217	26.80	1.02	-1.500			
0.6722	43022.71	3.4210	3.4211	-1.3081	26.82	1.04	-1.500			
0.6762	43276.08	3.4180	3.4180	-1.2938	26.84	1.06	-1.500			
0.6801	43523.29	3.4150	3.4150	-1.2648	26.85	1.07	-1.500			
0.6838	43763.72	3.4120	3.4121	-1.2319	26.87	1.09	-1.500			
0.6875	43997.32	3.4090	3.4089	-1.1962	26.88	1.10	-1.500			
0.6910	44224.43	3.4060	3.4059	-1.1674	26.90	1.12	-1.500			
0.6944	44442.34	3.4030	3.4031	-1.1372	26.91	1.13	-1.500			
0.6977	44655.92	3.4000	3.4000	-1.1118	26.93	1.15	-1.500			
0.7011	44869.78	3.3970	3.3969	-1.0844	26.95	1.17	-1.500			
0.7043	45076.25	3.3940	3.3939	-1.0517	26.96	1.18	-1.500			
0.7074	45275.88	3.3910	3.3910	-1.0215	26.97	1.19	-1.500			
0.7104	45468.20	3.3880	3.3881	-0.9935	26.98	1.20	-1.500			
0.7133	45654.32	3.3850	3.3849	-0.9585	27.00	1.22	-1.500			
0.7162	45834.43	3.3820	3.3820	-0.9276	27.01	1.23	-1.500			
0.7189	46010.49	3.3790	3.3790	-0.9059	27.03	1.25	-1.500			
0.7216	46183.74	3.3760	3.3761	-0.8839	27.04	1.26	-1.500			
0.7242	46350.45	3.3730	3.3730	-0.8565	27.05	1.27	-1.500			
0.7267	46511.68	3.3700	3.3700	-0.8317	27.06	1.28	-1.500			
0.7292	46669.13	3.3670	3.3670	-0.8039	27.08	1.30	-1.500			
0.7316	46820.78	3.3640	3.3640	-0.7816	27.09	1.31	-1.500			
0.7339	46967.52	3.3610	3.3610	-0.7587	27.10	1.32	-1.500			
0.7361	47110.87	3.3580	3.3579	-0.7345	27.11	1.33	-1.500			
0.7383	47249.44	3.3550	3.3550	-0.7176	27.12	1.34	-1.500			
0.7404	47384.85	3.3520	3.3520	-0.6971	27.13	1.35	-1.500			
0.7425	47517.04	3.3490	3.3490	-0.6787	27.14	1.36	-1.500			
0.7445	47646.59	3.3460	3.3460	-0.6618	27.15	1.37	-1.500			
0.7464	47771.20	3.3430	3.3430	-0.6431	27.16	1.38	-1.500			
0.7483	47892.97	3.3400	3.3400	-0.6277	27.17	1.39	-1.500			
0.7502	48011.88	3.3370	3.3370	-0.6118	27.18	1.40	-1.500			
0.7520	48127.07	3.3340	3.3340	-0.5935	27.19	1.41	-1.500			
0.7538	48240.16	3.3310	3.3310	-0.5794	27.19	1.41	-1.500			
0.7555	48350.01	3.3280	3.3280	-0.5617	27.20	1.42	-1.500			
0.7571	48455.34	3.3250	3.3250	-0.5487	27.21	1.43	-1.500			
0.7587	48559.15	3.3220	3.3220	-0.5335	27.22	1.44	-1.500			
0.7603	48659.50	3.3190	3.3190	-0.5204	27.22	1.44	-1.500			
0.7619	48759.07	3.3160	3.3160	-0.5063	27.23	1.45	-1.500			
0.7634	48855.64	3.3130	3.3130	-0.4935	27.24	1.46	-1.500			
0.7648	48948.75	3.3100	3.3100	-0.4795	27.25	1.47	-1.500			
0.7662	49039.22	3.3070	3.3070	-0.4687	27.26	1.48	-1.500			
0.7676	49126.81	3.3040	3.3040	-0.4578	27.27	1.49	-1.500			
0.7690	49213.97	3.3010	3.3009	-0.4480	27.27	1.49	-1.500			
0.7703	49298.84	3.2980	3.2980	-0.4376	27.28	1.50	-1.500			
0.7716	49382.93	3.2950	3.2950	-0.4290	27.29	1.51	-1.500			
0.7729	49463.54	3.2920	3.2921	-0.4185	27.30	1.52	-1.500			
0.7741	49542.76	3.2890	3.2889	-0.4080	27.30	1.52	-1.500			
0.7753	49619.82	3.2860	3.2858	-0.3983	27.31	1.53	-1.500			
0.7765	49694.83	3.2830	3.2831	-0.3876	27.32	1.54	-1.500			
0.7776	49768.73	3.2800	3.2800	-0.3801	27.32	1.54	-1.500			
0.7788	49841.47	3.2770	3.2770	-0.3717	27.33	1.55	-1.500			
0.7799	49912.30	3.2740	3.2738	-0.3609	27.34	1.56	-1.500			
0.7809	49979.58	3.2710	3.2711	-0.3515	27.35	1.57	-1.500			
0.7820	50046.56	3.2680	3.2680	-0.3437	27.35	1.57	-1.500			
0.7830	50111.37	3.2650	3.2650	-0.3362	27.36	1.58	-1.500			
0.7840	50175.01	3.2620	3.2620	-0.3303	27.36	1.58	-1.500			
0.7850	50237.36	3.2590	3.2590	-0.3228	27.37	1.59	-1.500			
0.7859	50298.79	3.2560	3.2560	-0.3178	27.38	1.60	-1.500			
0.7869	50360.07	3.2530	3.2529	-0.3112	27.38	1.60	-1.500			
0.7878	50418.71	3.2500	3.2501	-0.3038	27.39	1.61	-1.500			
0.7887	50476.49	3.2470	3.2469	-0.2972	27.40	1.62	-1.500			
0.7896	50532.39	3.2440	3.2440	-0.2907	27.40	1.62	-1.500			
0.7904	50587.28	3.2410	3.2410	-0.2836	27.41	1.63	-1.500			
0.7913	50641.30	3.2380	3.2380	-0.2794	27.41	1.63	-1.500			
0.7921	50694.25	3.2350	3.2350	-0.2746	27.42	1.64	-1.500			
0.7929	50746.73	3.2320	3.2321	-0.2719	27.43	1.65	-1.500			
0.7937	50798.48	3.2290	3.2289	-0.2666	27.43	1.65	-1.500			
0.7945	50849.59	3.2260	3.2260	-0.2629	27.44	1.66	-1.500			
0.7953	50899.65	3.2230	3.2230	-0.2583	27.44	1.66	-1.500			
0.7961	50948.83	3.2200	3.2201	-0.2532	27.45	1.67	-1.500			
0.7968	50996.80	3.2170	3.2170	-0.2496	27.45	1.67	-1.500			
0.7976	51044.40	3.2140	3.2139	-0.2453	27.46	1.68	-1.500			
0.7983	51090.77	3.2110	3.2110	-0.2419	27.46	1.68	-1.500			
0.7990	51136.51	3.2080	3.2079	-0.2384	27.47	1.69	-1.500			
0.7997	51182.49	3.2050	3.2051	-0.2357	27.47	1.69	-1.500			
0.8004	51227.36	3.2020	3.2019	-0.2327	27.48	1.70	-1.500			
0.8011	51271.86	3.1990	3.1990	-0.2294	27.48	1.70	-1.500			
0.8018	51315.69	3.1960	3.1960	-0.2260	27.49	1.71	-1.500			
0.8025	51358.55	3.1930	3.1930	-0.2211	27.49	1.71	-1.500			
0.8031	51400.61	3.1900	3.1900	-0.2197	27.50	1.72	-1.500			
0.8038	51442.42	3.1870	3.1871	-0.2154	27.50	1.72	-1.500			
0.8044	51483.50	3.1840	3.1840	-0.2125	27.51	1.73	-1.500			
0.8051	51523.87	3.1810	3.1809	-0.2110	27.51	1.73	-1.500			
0.8057	51563.93	3.1780	3.1781	-0.2082	27.52	1.74	-1.500			
0.8063	51603.94	3.1750	3.1750	-0.2067	27.52	1.74	-1.500			
0.8069	51643.43	3.1720	3.1719	-0.2047	27.53	1.75	-1.500			
0.8075	51682.90	3.1690	3.1690	-0.2023	27.53	1.75	-1.500			
0.8081	51721.13	3.1660	3.1661	-0.1988	27.54	1.76	-1.500			
0.8087	51759.29	3.1630	3.1630	-0.1981	27.54	1.76	-1.500			
0.8093	51797.08	3.1600	3.1600	-0.1952	27.55	1.77	-1.500			
0.8099	51833.92	3.1570	3.1570	-0.1920	27.55	1.77	-1.500			
0.8105	51870.70	3.1540	3.1540	-0.1898	27.56	1.78	-1.500			
0.8110	51906.52	3.1510	3.1511	-0.1882	27.56	1.78	-1.500			
0.8116	51942.63	3.1480	3.1479	-0.1867	27.57	1.79	-1.500			
0.8122	51978.38	3.1450	3.1451	-0.1853	27.58	1.80	-1.500			
0.8127	52013.72	3.1420	3.1419	-0.1841	27.58	1.80	-1.500			
0.8133	52048.87	3.1390	3.1391	-0.1821	27.59	1.81	-1.500			
0.8138	52083.93	3.1360	3.1360	-0.1818	27.60	1.82	-1.500			
0.8144	52118.68	3.1330	3.1330	-0.1802	27.60	1.82	-1.500			
0.8149	52153.25	3.1300	3.1300	-0.1783	27.61	1.83	-1.500			
0.8154	52186.94	3.1270	3.1271	-0.1764	27.62	1.84	-1.500			
0.8160	52220.85	3.1240	3.1240	-0.1754	27.62	1.84	-1.500			
0.8165	52254.51	3.1210	3.1210	-0.1729	27.63	1.85	-1.500			
0.8170	52287.37	3.1180	3.1180	-0.1711	27.64	1.86	-1.500			
0.8175	52320.05	3.1150	3.1151	-0.1698	27.64	1.86	-1.500			
0.8180	52352.25	3.1120	3.1120	-0.1677	27.65	1.87	-1.500			
0.8185	52384.37	3.1090	3.1089	-0.1663	27.65	1.87	-1.500			
0.8190	52416.21	3.1060	3.1060	-0.1651	27.66	1.88	-1.500			
0.8195	52447.60	3.1030	3.1031	-0.1636	27.67	1.89	-1.500			
0.8200	52479.19	3.1000	3.1000	-0.1631	27.67	1.89	-1.500			
0.8205	52510.34	3.0970	3.0970	-0.1618	27.68	1.90	-1.500			
0.8210	52541.13	3.0940	3.0940	-0.1603	27.68	1.90	-1.500			
0.8214	52571.58	3.0910	3.0911	-0.1595	27.69	1.91	-1.500			
0.8219	52602.15	3.0880	3.0880	-0.1589	27.69	1.91	-1.500			
0.8224	52632.70	3.0850	3.0849	-0.1576	27.70	1.92	-1.500			
0.8229	52662.70	3.0820	3.0820	-0.1571	27.71	1.93	-1.500			
0.8233	52692.94	3.0790	3.0791	-0.1560	27.71	1.93	-1.500			
0.8238	52722.80	3.0760	3.0760	-0.1550	27.72	1.94	-1.500			
0.8243	52752.54	3.0730	3.0729	-0.1543	27.72	1.94	-1.500			
0.8247	52782.20	3.0700	3.0701	-0.1530	27.73	1.95	-1.500			
0.8252	52811.32	3.0670	3.0671	-0.1514	27.73	1.95	-1.500			
0.8256	52840.28	3.0640	3.0639	-0.1503	27.74	1.96	-1.500			
0.8261	52869.18	3.0610	3.0610	-0.1494	27.74	1.96	-1.500			
0.8265	52897.48	3.0580	3.0580	-0.1477	27.75	1.97	-1.500			
0.8270	52925.91	3.0550	3.0549	-0.1470	27.76	1.98	-1.500			
0.8274	52953.91	3.0520	3.0520	-0.1465	27.76	1.98	-1.500			
0.8278	52981.82	3.0490	3.0490	-0.1453	27.77	1.99	-1.500			
0.8283	53009.77	3.0460	3.0459	-0.1448	27.77	1.99	-1.500			
0.8287	53037.48	3.0430	3.0430	-0.1439	27.78	2.00	-1.500			
0.8291	53065.03	3.0400	3.0401	-0.1429	27.78	2.00	-1.500			
0.8296	53092.57	3.0370	3.0370	-0.1415	27.79	2.01	-1.500			
0.8300	53119.40	3.0340	3.0341	-0.1410	27.80	2.02	-1.500			
0.8304	53146.38	3.0310	3.0310	-0.1401	27.80	2.02	-1.500			
0.8308	53173.04	3.0280	3.0281	-0.1389	27.81	2.03	-1.500			
0.8312	53199.65	3.0250	3.0249	-0.1383	27.81	2.03	-1.500			
0.8317	53226.11	3.0220	3.0221	-0.1374	27.82	2.04	-1.500			
0.8321	53252.44	3.0190	3.0190	-0.1369	27.82	2.04	-1.500			
0.8325	53278.71	3.0160	3.0160	-0.1364	27.83	2.05	-1.500			
0.8329	53305.20	3.0130	3.0130	-0.1352	27.83	2.05	-1.500			
0.8333	53330.81	3.0100	3.0100	-0.1333	27.84	2.06	-1.500			
0.8337	53356.29	3.0070	3.0070	-0.1321	27.85	2.07	-1.500			
0.8341	53381.78	3.0040	3.0042	-0.1293	27.85	2.07	-1.499			
0.8345	53406.30	3.0010	3.0010	-0.1251	27.86	2.08	-1.501			
