Ah_balance (normalized)	Ah_balance (mAh)	Voltage - fit (V)	Voltage -  interpolate (V)	dQ/dV (1/V)	Temperature (°C)	Temperature - diff (°C)	Current (C)	R_DC 0ms (mOhm)	R_DC 50ms (mOhm)	R_DC 50 ms PEC (mOhm)
0.2182	13966.65	3.9140	3.9135	-0.0938	25.98	0.00	-1.500			
0.2186	13987.73	3.9110	3.9109	-0.1258	25.98	0.00	-1.500			
0.2190	14015.34	3.9080	3.9078	-0.1573	25.98	0.00	-1.500			
0.2195	14048.77	3.9050	3.9051	-0.1870	25.98	0.00	-1.500			
0.2201	14087.78	3.9020	3.9020	-0.2154	25.98	0.00	-1.500			
0.2208	14132.40	3.8990	3.8990	-0.2401	25.98	0.00	-1.500			
0.2216	14181.87	3.8960	3.8960	-0.2679	25.98	-0.00	-1.500			
0.2224	14235.51	3.8930	3.8931	-0.2929	25.98	-0.00	-1.500			
0.2233	14294.15	3.8900	3.8900	-0.3194	25.98	-0.00	-1.500			
0.2243	14357.72	3.8870	3.8870	-0.3451	25.98	-0.00	-1.500			
0.2254	14426.69	3.8840	3.8840	-0.3697	25.98	-0.00	-1.500			
0.2266	14500.51	3.8810	3.8810	-0.3947	25.98	-0.00	-1.500			
0.2278	14578.94	3.8780	3.8780	-0.4189	25.97	-0.01	-1.500			
0.2291	14661.17	3.8750	3.8751	-0.4429	25.97	-0.01	-1.500			
0.2304	14748.77	3.8720	3.8719	-0.4674	25.97	-0.01	-1.500			
0.2319	14840.99	3.8690	3.8690	-0.4876	25.97	-0.01	-1.500			
0.2334	14937.17	3.8660	3.8660	-0.5090	25.97	-0.01	-1.500			
0.2350	15037.80	3.8630	3.8630	-0.5296	25.97	-0.01	-1.500			
0.2366	15141.22	3.8600	3.8599	-0.5471	25.97	-0.01	-1.500			
0.2382	15247.85	3.8570	3.8570	-0.5640	25.97	-0.01	-1.500			
0.2400	15357.88	3.8540	3.8540	-0.5788	25.96	-0.02	-1.500			
0.2417	15471.23	3.8510	3.8510	-0.5951	25.96	-0.02	-1.500			
0.2436	15587.54	3.8480	3.8480	-0.6092	25.96	-0.02	-1.500			
0.2454	15706.42	3.8450	3.8450	-0.6176	25.96	-0.02	-1.500			
0.2473	15825.91	3.8420	3.8420	-0.6270	25.96	-0.02	-1.500			
0.2492	15946.97	3.8390	3.8390	-0.6364	25.96	-0.02	-1.500			
0.2511	16070.30	3.8360	3.8360	-0.6431	25.96	-0.02	-1.500			
0.2530	16194.64	3.8330	3.8330	-0.6516	25.97	-0.01	-1.500			
0.2550	16320.46	3.8300	3.8301	-0.6553	25.97	-0.01	-1.500			
0.2570	16447.87	3.8270	3.8270	-0.6600	25.97	-0.01	-1.500			
0.2590	16575.30	3.8240	3.8240	-0.6647	25.97	-0.01	-1.500			
0.2610	16702.56	3.8210	3.8210	-0.6653	25.97	-0.01	-1.500			
0.2630	16830.03	3.8180	3.8180	-0.6704	25.97	-0.01	-1.500			
0.2650	16959.92	3.8150	3.8150	-0.6740	25.98	-0.00	-1.500			
0.2670	17089.49	3.8120	3.8119	-0.6751	25.98	-0.00	-1.500			
0.2691	17220.63	3.8090	3.8090	-0.6781	25.98	-0.00	-1.500			
0.2711	17350.70	3.8060	3.8061	-0.6772	25.98	-0.00	-1.500			
0.2731	17480.39	3.8030	3.8030	-0.6789	25.98	0.00	-1.500			
0.2752	17610.94	3.8000	3.8000	-0.6810	25.99	0.01	-1.500			
0.2772	17741.05	3.7970	3.7970	-0.6786	25.99	0.01	-1.500			
0.2793	17872.43	3.7940	3.7940	-0.6835	25.99	0.01	-1.500			
0.2813	18003.26	3.7910	3.7911	-0.6844	26.00	0.02	-1.500			
0.2834	18135.38	3.7880	3.7880	-0.6854	26.00	0.02	-1.500			
0.2854	18266.98	3.7850	3.7849	-0.6822	26.00	0.02	-1.500			
0.2875	18397.51	3.7820	3.7820	-0.6808	26.01	0.03	-1.500			
0.2895	18527.75	3.7790	3.7791	-0.6833	26.01	0.03	-1.500			
0.2916	18659.32	3.7760	3.7759	-0.6841	26.01	0.03	-1.500			
0.2936	18789.88	3.7730	3.7730	-0.6840	26.02	0.04	-1.500			
0.2956	18921.59	3.7700	3.7701	-0.6863	26.02	0.04	-1.500			
0.2977	19054.09	3.7670	3.7670	-0.6884	26.02	0.04	-1.500			
0.2998	19186.80	3.7640	3.7639	-0.6889	26.03	0.05	-1.500			
0.3018	19318.22	3.7610	3.7611	-0.6884	26.03	0.05	-1.500			
0.3039	19449.72	3.7580	3.7580	-0.6905	26.04	0.06	-1.500			
0.3060	19583.86	3.7550	3.7550	-0.6917	26.04	0.06	-1.500			
0.3081	19716.28	3.7520	3.7519	-0.6932	26.05	0.07	-1.500			
0.3101	19849.13	3.7490	3.7491	-0.6963	26.05	0.07	-1.500			
0.3122	19983.17	3.7460	3.7460	-0.6993	26.06	0.08	-1.500			
0.3143	20117.43	3.7430	3.7429	-0.7066	26.06	0.08	-1.500			
0.3165	20254.33	3.7400	3.7400	-0.7080	26.07	0.09	-1.500			
0.3186	20390.16	3.7370	3.7370	-0.7113	26.07	0.09	-1.500			
0.3207	20527.84	3.7340	3.7342	-0.7151	26.08	0.10	-1.500			
0.3229	20665.01	3.7310	3.7309	-0.7178	26.08	0.10	-1.500			
0.3250	20802.83	3.7280	3.7279	-0.7222	26.09	0.11	-1.500			
0.3272	20940.66	3.7250	3.7250	-0.7273	26.09	0.11	-1.500			
0.3294	21080.54	3.7220	3.7221	-0.7326	26.09	0.11	-1.500			
0.3316	21224.64	3.7190	3.7189	-0.7410	26.10	0.12	-1.500			
0.3339	21366.54	3.7160	3.7160	-0.7445	26.10	0.12	-1.500			
0.3361	21510.13	3.7130	3.7130	-0.7483	26.10	0.12	-1.500			
0.3383	21653.14	3.7100	3.7100	-0.7573	26.11	0.13	-1.500			
0.3406	21799.06	3.7070	3.7070	-0.7636	26.11	0.13	-1.500			
0.3429	21946.03	3.7040	3.7040	-0.7743	26.11	0.13	-1.500			
0.3452	22095.74	3.7010	3.7010	-0.7871	26.12	0.14	-1.500			
0.3476	22248.37	3.6980	3.6979	-0.7964	26.12	0.14	-1.500			
0.3500	22402.50	3.6950	3.6950	-0.8063	26.13	0.15	-1.500			
0.3525	22559.14	3.6920	3.6920	-0.8151	26.13	0.15	-1.500			
0.3549	22715.08	3.6890	3.6890	-0.8213	26.13	0.15	-1.500			
0.3574	22874.70	3.6860	3.6860	-0.8345	26.14	0.16	-1.500			
0.3599	23034.86	3.6830	3.6830	-0.8456	26.14	0.16	-1.500			
0.3625	23198.44	3.6800	3.6799	-0.8581	26.15	0.17	-1.500			
0.3651	23364.58	3.6770	3.6770	-0.8742	26.15	0.17	-1.500			
0.3677	23534.99	3.6740	3.6741	-0.8845	26.15	0.17	-1.500			
0.3704	23705.13	3.6710	3.6710	-0.8998	26.16	0.18	-1.500			
0.3731	23879.11	3.6680	3.6680	-0.9107	26.16	0.18	-1.500			
0.3759	24054.69	3.6650	3.6650	-0.9229	26.16	0.18	-1.500			
0.3786	24232.73	3.6620	3.6619	-0.9367	26.17	0.19	-1.500			
0.3815	24413.01	3.6590	3.6590	-0.9548	26.17	0.19	-1.500			
0.3843	24596.74	3.6560	3.6561	-0.9758	26.17	0.19	-1.500			
0.3873	24788.23	3.6530	3.6529	-0.9955	26.17	0.19	-1.500			
0.3903	24981.06	3.6500	3.6500	-1.0098	26.18	0.20	-1.500			
0.3934	25178.70	3.6470	3.6470	-1.0291	26.18	0.20	-1.500			
0.3965	25378.42	3.6440	3.6441	-1.0444	26.18	0.20	-1.500			
0.3997	25579.58	3.6410	3.6410	-1.0587	26.18	0.20	-1.500			
0.4028	25780.60	3.6380	3.6380	-1.0740	26.18	0.20	-1.500			
0.4061	25988.61	3.6350	3.6350	-1.0957	26.18	0.20	-1.500			
0.4094	26202.45	3.6320	3.6319	-1.1211	26.18	0.20	-1.500			
0.4128	26420.14	3.6290	3.6290	-1.1383	26.18	0.20	-1.500			
0.4163	26642.60	3.6260	3.6260	-1.1541	26.18	0.20	-1.500			
0.4198	26865.17	3.6230	3.6229	-1.1702	26.18	0.20	-1.500			
0.4233	27089.32	3.6200	3.6201	-1.1836	26.18	0.20	-1.500			
0.4268	27316.30	3.6170	3.6169	-1.2053	26.18	0.20	-1.500			
0.4305	27548.86	3.6140	3.6140	-1.2256	26.18	0.20	-1.500			
0.4342	27785.84	3.6110	3.6110	-1.2437	26.18	0.20	-1.500			
0.4380	28031.07	3.6080	3.6081	-1.2748	26.18	0.20	-1.500			
0.4418	28277.96	3.6050	3.6050	-1.2977	26.18	0.20	-1.500			
0.4458	28528.76	3.6020	3.6020	-1.3119	26.18	0.20	-1.500			
0.4497	28782.45	3.5990	3.5990	-1.3330	26.18	0.20	-1.500			
0.4537	29036.54	3.5960	3.5960	-1.3522	26.18	0.20	-1.500			
0.4578	29300.94	3.5930	3.5930	-1.3736	26.18	0.20	-1.500			
0.4620	29565.43	3.5900	3.5900	-1.3961	26.18	0.20	-1.500			
0.4662	29837.61	3.5870	3.5870	-1.4081	26.18	0.20	-1.500			
0.4705	30109.65	3.5840	3.5840	-1.4233	26.18	0.20	-1.500			
0.4748	30384.82	3.5810	3.5810	-1.4463	26.18	0.20	-1.500			
0.4791	30662.89	3.5780	3.5780	-1.4598	26.18	0.20	-1.500			
0.4835	30943.50	3.5750	3.5749	-1.4805	26.18	0.20	-1.500			
0.4880	31231.84	3.5720	3.5720	-1.5014	26.18	0.20	-1.500			
0.4925	31521.58	3.5690	3.5690	-1.5193	26.18	0.20	-1.500			
0.4971	31817.05	3.5660	3.5661	-1.5427	26.18	0.20	-1.500			
0.5018	32113.11	3.5630	3.5630	-1.5601	26.18	0.20	-1.500			
0.5065	32414.45	3.5600	3.5600	-1.5734	26.18	0.20	-1.500			
0.5112	32718.92	3.5570	3.5570	-1.5888	26.18	0.20	-1.500			
0.5161	33027.45	3.5540	3.5540	-1.6062	26.18	0.20	-1.500			
0.5209	33336.29	3.5510	3.5509	-1.6159	26.18	0.20	-1.500			
0.5258	33648.37	3.5480	3.5480	-1.6258	26.18	0.20	-1.500			
0.5306	33959.98	3.5450	3.5450	-1.6415	26.19	0.21	-1.500			
0.5355	34274.96	3.5420	3.5420	-1.6545	26.19	0.21	-1.500			
0.5406	34595.82	3.5390	3.5390	-1.6734	26.20	0.22	-1.500			
0.5456	34920.97	3.5360	3.5360	-1.6813	26.20	0.22	-1.500			
0.5507	35244.43	3.5330	3.5330	-1.6933	26.20	0.22	-1.500			
0.5558	35570.83	3.5300	3.5304	-1.7057	26.21	0.23	-1.500	0.380	0.526	
0.5609	35900.62	3.5270	3.5270	-1.7138	26.21	0.23	-1.500			
0.5661	36228.55	3.5240	3.5240	-1.7172	26.22	0.24	-1.500			
0.5712	36558.32	3.5210	3.5213	-1.7299	26.22	0.24	-1.500			
0.5765	36892.99	3.5180	3.5180	-1.7397	26.22	0.24	-1.500			
0.5817	37227.59	3.5150	3.5149	-1.7464	26.23	0.25	-1.500			
0.5869	37564.66	3.5120	3.5120	-1.7469	26.23	0.25	-1.500			
0.5922	37902.00	3.5090	3.5090	-1.7460	26.24	0.26	-1.500			
0.5975	38237.48	3.5060	3.5060	-1.7448	26.24	0.26	-1.500			
0.6027	38572.03	3.5030	3.5030	-1.7437	26.25	0.27	-1.500			
0.6079	38905.90	3.5000	3.5000	-1.7414	26.26	0.28	-1.500			
0.6131	39240.93	3.4970	3.4970	-1.7385	26.27	0.29	-1.500			
0.6183	39573.61	3.4940	3.4940	-1.7401	26.28	0.30	-1.500			
0.6236	39909.39	3.4910	3.4910	-1.7424	26.28	0.30	-1.500			
0.6288	40243.57	3.4880	3.4880	-1.7401	26.29	0.31	-1.500			
0.6341	40580.30	3.4850	3.4850	-1.7373	26.30	0.32	-1.500			
0.6393	40915.69	3.4820	3.4820	-1.7285	26.31	0.33	-1.500			
0.6445	41248.90	3.4790	3.4790	-1.7151	26.32	0.34	-1.500			
0.6496	41576.28	3.4760	3.4759	-1.6955	26.33	0.35	-1.500			
0.6547	41899.26	3.4730	3.4730	-1.6733	26.34	0.36	-1.500			
0.6596	42216.22	3.4700	3.4701	-1.6538	26.35	0.37	-1.500			
0.6645	42530.62	3.4670	3.4670	-1.6319	26.36	0.38	-1.500			
0.6695	42847.34	3.4640	3.4640	-1.6241	26.38	0.40	-1.500			
0.6743	43156.97	3.4610	3.4609	-1.6019	26.39	0.41	-1.500			
0.6791	43462.05	3.4580	3.4580	-1.5926	26.41	0.43	-1.500			
0.6839	43767.61	3.4550	3.4550	-1.5664	26.42	0.44	-1.500			
0.6885	44065.28	3.4520	3.4520	-1.5457	26.44	0.46	-1.500			
0.6931	44360.93	3.4490	3.4489	-1.5201	26.45	0.47	-1.500			
0.6977	44650.86	3.4460	3.4460	-1.4998	26.47	0.49	-1.500			
0.7021	44937.20	3.4430	3.4430	-1.4749	26.48	0.50	-1.500			
0.7065	45216.29	3.4400	3.4400	-1.4583	26.49	0.51	-1.500			
0.7108	45492.17	3.4370	3.4370	-1.4345	26.51	0.53	-1.500			
0.7152	45769.67	3.4340	3.4339	-1.4247	26.52	0.54	-1.500			
0.7194	46040.11	3.4310	3.4310	-1.4065	26.53	0.55	-1.500			
0.7236	46309.94	3.4280	3.4279	-1.3923	26.55	0.57	-1.500			
0.7277	46574.45	3.4250	3.4250	-1.3752	26.57	0.59	-1.500			
0.7318	46836.55	3.4220	3.4221	-1.3651	26.58	0.60	-1.500			
0.7359	47096.17	3.4190	3.4190	-1.3530	26.60	0.62	-1.500			
0.7400	47359.35	3.4160	3.4158	-1.3459	26.62	0.64	-1.500			
0.7440	47618.47	3.4130	3.4130	-1.3252	26.63	0.65	-1.500			
0.7480	47871.79	3.4100	3.4101	-1.3006	26.65	0.67	-1.500			
0.7519	48121.97	3.4070	3.4069	-1.2756	26.67	0.69	-1.500			
0.7557	48364.06	3.4040	3.4040	-1.2417	26.68	0.70	-1.500			
0.7593	48594.71	3.4010	3.4010	-1.2035	26.70	0.72	-1.500			
0.7629	48826.65	3.3980	3.3980	-1.1728	26.71	0.73	-1.500			
0.7664	49050.55	3.3950	3.3950	-1.1324	26.73	0.75	-1.500			
0.7698	49264.02	3.3920	3.3920	-1.0881	26.74	0.76	-1.500			
0.7730	49468.89	3.3890	3.3891	-1.0475	26.75	0.77	-1.500			
0.7760	49664.34	3.3860	3.3860	-1.0092	26.77	0.79	-1.500			
0.7789	49852.72	3.3830	3.3829	-0.9690	26.78	0.80	-1.500			
0.7818	50034.98	3.3800	3.3800	-0.9325	26.80	0.82	-1.500			
0.7845	50211.04	3.3770	3.3770	-0.8994	26.81	0.83	-1.500			
0.7872	50381.84	3.3740	3.3740	-0.8700	26.83	0.85	-1.500			
0.7898	50544.79	3.3710	3.3710	-0.8374	26.84	0.86	-1.500			
0.7922	50700.52	3.3680	3.3680	-0.8041	26.85	0.87	-1.500			
0.7946	50852.27	3.3650	3.3649	-0.7759	26.86	0.88	-1.500			
0.7968	50997.95	3.3620	3.3620	-0.7506	26.86	0.88	-1.500			
0.7991	51139.35	3.3590	3.3590	-0.7263	26.87	0.89	-1.500			
0.8012	51276.27	3.3560	3.3560	-0.6989	26.89	0.91	-1.500			
0.8032	51407.16	3.3530	3.3530	-0.6758	26.90	0.92	-1.500			
0.8052	51534.58	3.3500	3.3501	-0.6562	26.91	0.93	-1.500			
0.8072	51657.65	3.3470	3.3470	-0.6374	26.92	0.94	-1.500			
0.8090	51778.51	3.3440	3.3439	-0.6178	26.92	0.94	-1.500			
0.8109	51894.51	3.3410	3.3410	-0.5980	26.93	0.95	-1.500			
0.8126	52008.41	3.3380	3.3381	-0.5804	26.94	0.96	-1.500			
0.8144	52118.88	3.3350	3.3349	-0.5660	26.95	0.97	-1.500			
0.8160	52224.94	3.3320	3.3320	-0.5457	26.96	0.98	-1.500			
0.8176	52327.10	3.3290	3.3290	-0.5303	26.96	0.98	-1.500			
0.8192	52426.79	3.3260	3.3260	-0.5156	26.97	0.99	-1.500			
0.8207	52524.92	3.3230	3.3230	-0.5034	26.97	0.99	-1.500			
0.8222	52620.37	3.3200	3.3200	-0.4884	26.98	1.00	-1.500			
0.8237	52713.71	3.3170	3.3170	-0.4742	26.99	1.01	-1.500			
0.8250	52802.92	3.3140	3.3140	-0.4593	26.99	1.01	-1.500			
0.8264	52889.64	3.3110	3.3110	-0.4480	27.00	1.02	-1.500			
0.8277	52972.75	3.3080	3.3080	-0.4324	27.01	1.03	-1.500			
0.8290	53055.16	3.3050	3.3050	-0.4214	27.02	1.04	-1.500			
0.8302	53134.62	3.3020	3.3019	-0.4101	27.02	1.04	-1.500			
0.8314	53212.19	3.2990	3.2991	-0.4008	27.03	1.05	-1.500			
0.8326	53288.59	3.2960	3.2961	-0.3908	27.04	1.06	-1.500			
0.8338	53361.64	3.2930	3.2930	-0.3825	27.04	1.06	-1.500			
0.8349	53434.36	3.2900	3.2899	-0.3719	27.05	1.07	-1.500			
0.8360	53505.61	3.2870	3.2870	-0.3657	27.06	1.08	-1.500			
0.8371	53575.30	3.2840	3.2841	-0.3580	27.06	1.08	-1.500			
0.8382	53642.85	3.2810	3.2811	-0.3490	27.07	1.09	-1.500			
0.8392	53709.03	3.2780	3.2779	-0.3403	27.08	1.10	-1.500			
0.8402	53773.45	3.2750	3.2751	-0.3303	27.08	1.10	-1.500			
0.8412	53835.30	3.2720	3.2720	-0.3216	27.09	1.11	-1.500			
0.8421	53896.57	3.2690	3.2691	-0.3162	27.10	1.12	-1.500			
0.8431	53956.08	3.2660	3.2659	-0.3080	27.10	1.12	-1.500			
0.8440	54014.36	3.2630	3.2629	-0.3009	27.11	1.13	-1.500			
0.8449	54071.29	3.2600	3.2601	-0.2956	27.11	1.13	-1.500			
0.8457	54127.82	3.2570	3.2569	-0.2909	27.12	1.14	-1.500			
0.8466	54183.40	3.2540	3.2540	-0.2859	27.12	1.14	-1.500			
0.8475	54237.10	3.2510	3.2510	-0.2786	27.13	1.15	-1.500			
0.8483	54290.18	3.2480	3.2481	-0.2739	27.13	1.15	-1.500			
0.8491	54342.52	3.2450	3.2450	-0.2688	27.14	1.16	-1.500			
0.8499	54393.81	3.2420	3.2420	-0.2628	27.14	1.16	-1.500			
0.8507	54443.27	3.2390	3.2390	-0.2573	27.15	1.17	-1.500			
0.8514	54492.36	3.2360	3.2360	-0.2516	27.15	1.17	-1.500			
0.8522	54540.02	3.2330	3.2330	-0.2476	27.16	1.18	-1.500			
0.8529	54586.81	3.2300	3.2302	-0.2431	27.16	1.18	-1.500			
0.8536	54632.49	3.2270	3.2269	-0.2399	27.17	1.19	-1.500			
0.8544	54678.53	3.2240	3.2239	-0.2368	27.17	1.19	-1.500			
0.8551	54723.78	3.2210	3.2210	-0.2342	27.18	1.20	-1.500			
0.8558	54768.57	3.2180	3.2180	-0.2305	27.18	1.20	-1.500			
0.8564	54812.50	3.2150	3.2152	-0.2274	27.19	1.21	-1.500			
0.8571	54856.42	3.2120	3.2120	-0.2243	27.19	1.21	-1.500			
0.8578	54898.96	3.2090	3.2089	-0.2200	27.20	1.22	-1.500			
0.8584	54940.67	3.2060	3.2060	-0.2170	27.20	1.22	-1.500			
0.8591	54981.56	3.2030	3.2031	-0.2134	27.20	1.22	-1.500			
0.8597	55022.20	3.2000	3.2000	-0.2125	27.21	1.23	-1.500			
0.8604	55063.01	3.1970	3.1969	-0.2101	27.21	1.23	-1.500			
0.8610	55103.21	3.1940	3.1940	-0.2076	27.22	1.24	-1.500			
0.8616	55142.79	3.1910	3.1910	-0.2052	27.22	1.24	-1.500			
0.8622	55182.58	3.1880	3.1881	-0.2022	27.23	1.25	-1.500			
0.8628	55220.85	3.1850	3.1851	-0.1989	27.23	1.25	-1.500			
0.8634	55258.37	3.1820	3.1820	-0.1966	27.24	1.26	-1.500			
0.8640	55295.70	3.1790	3.1790	-0.1938	27.24	1.26	-1.500			
0.8646	55332.25	3.1760	3.1759	-0.1905	27.25	1.27	-1.500			
0.8651	55368.48	3.1730	3.1730	-0.1898	27.25	1.27	-1.500			
0.8657	55405.15	3.1700	3.1700	-0.1878	27.26	1.28	-1.500			
0.8663	55441.03	3.1670	3.1671	-0.1860	27.26	1.28	-1.500			
0.8668	55476.87	3.1640	3.1639	-0.1849	27.27	1.29	-1.500			
0.8674	55511.95	3.1610	3.1611	-0.1830	27.28	1.30	-1.500			
0.8679	55546.82	3.1580	3.1580	-0.1809	27.28	1.30	-1.500			
0.8685	55581.44	3.1550	3.1549	-0.1796	27.29	1.31	-1.500			
0.8690	55616.04	3.1520	3.1520	-0.1783	27.29	1.31	-1.500			
0.8695	55649.67	3.1490	3.1490	-0.1763	27.30	1.32	-1.500			
0.8701	55683.78	3.1460	3.1461	-0.1760	27.30	1.32	-1.500			
0.8706	55717.46	3.1430	3.1429	-0.1740	27.31	1.33	-1.500			
0.8711	55750.51	3.1400	3.1400	-0.1720	27.31	1.33	-1.500			
0.8716	55783.36	3.1370	3.1370	-0.1705	27.32	1.34	-1.500			
0.8721	55816.12	3.1340	3.1341	-0.1691	27.32	1.34	-1.500			
0.8726	55848.28	3.1310	3.1309	-0.1675	27.33	1.35	-1.500			
0.8731	55880.25	3.1280	3.1280	-0.1658	27.33	1.35	-1.500			
0.8736	55911.83	3.1250	3.1250	-0.1641	27.34	1.36	-1.500			
0.8741	55943.13	3.1220	3.1220	-0.1628	27.34	1.36	-1.500			
0.8746	55974.37	3.1190	3.1190	-0.1618	27.35	1.37	-1.500			
0.8751	56005.28	3.1160	3.1160	-0.1607	27.35	1.37	-1.500			
0.8756	56035.97	3.1130	3.1130	-0.1593	27.36	1.38	-1.500			
0.8760	56066.50	3.1100	3.1100	-0.1583	27.36	1.38	-1.500			
0.8765	56096.70	3.1070	3.1071	-0.1570	27.37	1.39	-1.500			
0.8770	56126.74	3.1040	3.1039	-0.1560	27.37	1.39	-1.500			
0.8774	56156.63	3.1010	3.1010	-0.1552	27.38	1.40	-1.500			
0.8779	56186.24	3.0980	3.0980	-0.1541	27.38	1.40	-1.500			
0.8784	56215.75	3.0950	3.0950	-0.1533	27.39	1.41	-1.500			
0.8788	56245.11	3.0920	3.0920	-0.1522	27.39	1.41	-1.500			
0.8793	56274.30	3.0890	3.0890	-0.1515	27.40	1.42	-1.500			
0.8797	56303.27	3.0860	3.0859	-0.1506	27.40	1.42	-1.500			
0.8802	56332.09	3.0830	3.0831	-0.1497	27.41	1.43	-1.500			
0.8806	56360.79	3.0800	3.0799	-0.1484	27.41	1.43	-1.500			
0.8811	56389.09	3.0770	3.0770	-0.1476	27.42	1.44	-1.500			
0.8815	56417.50	3.0740	3.0740	-0.1463	27.42	1.44	-1.500			
0.8820	56445.46	3.0710	3.0710	-0.1450	27.43	1.45	-1.500			
0.8824	56473.26	3.0680	3.0679	-0.1439	27.43	1.45	-1.500			
0.8828	56500.55	3.0650	3.0651	-0.1431	27.44	1.46	-1.500			
0.8832	56528.00	3.0620	3.0619	-0.1420	27.44	1.46	-1.500			
0.8837	56555.18	3.0590	3.0590	-0.1412	27.45	1.47	-1.500			
0.8841	56582.18	3.0560	3.0560	-0.1406	27.46	1.48	-1.500			
0.8845	56608.95	3.0530	3.0531	-0.1397	27.46	1.48	-1.500			
0.8849	56636.01	3.0500	3.0499	-0.1394	27.47	1.49	-1.500			
0.8854	56662.68	3.0470	3.0470	-0.1383	27.47	1.49	-1.500			
0.8858	56689.10	3.0440	3.0439	-0.1374	27.48	1.50	-1.500			
0.8862	56715.27	3.0410	3.0411	-0.1365	27.48	1.50	-1.500			
0.8866	56741.55	3.0380	3.0379	-0.1360	27.49	1.51	-1.500			
0.8870	56767.54	3.0350	3.0350	-0.1352	27.49	1.51	-1.500			
0.8874	56793.30	3.0320	3.0320	-0.1340	27.50	1.52	-1.500			
0.8878	56818.95	3.0290	3.0291	-0.1333	27.51	1.53	-1.500			
0.8882	56844.56	3.0260	3.0260	-0.1327	27.51	1.53	-1.500			
0.8886	56869.97	3.0230	3.0230	-0.1318	27.52	1.54	-1.500			
0.8890	56895.15	3.0200	3.0199	-0.1310	27.52	1.54	-1.500			
0.8894	56920.17	3.0170	3.0170	-0.1301	27.53	1.55	-1.500			
0.8898	56945.01	3.0140	3.0140	-0.1296	27.53	1.55	-1.500			
0.8902	56969.77	3.0110	3.0110	-0.1291	27.54	1.56	-1.500			
0.8905	56994.50	3.0080	3.0079	-0.1287	27.54	1.56	-1.500			
0.8909	57019.01	3.0050	3.0050	-0.1289	27.55	1.57	-1.500			
0.8913	57043.80	3.0020	3.0020	-0.1293	27.55	1.57	-1.500			
