Ah_balance (normalized)	Ah_balance (mAh)	Voltage - fit (V)	Voltage -  interpolate (V)	dQ/dV (1/V)	Temperature (°C)	Temperature - diff (°C)	Current (C)	R_DC 0ms (mOhm)	R_DC 50ms (mOhm)	R_DC 50 ms PEC (mOhm)
0.1917	12268.99	3.9270	3.9268	-0.1019	25.75	-0.01	-1.500			
0.1921	12291.37	3.9240	3.9240	-0.1290	25.75	-0.01	-1.500			
0.1925	12319.15	3.9210	3.9209	-0.1545	25.75	-0.01	-1.500			
0.1930	12351.05	3.9180	3.9180	-0.1793	25.76	-0.00	-1.500			
0.1936	12387.98	3.9150	3.9150	-0.2035	25.76	-0.00	-1.500			
0.1942	12429.85	3.9120	3.9120	-0.2278	25.76	-0.00	-1.500			
0.1949	12476.24	3.9090	3.9090	-0.2503	25.76	-0.00	-1.500			
0.1957	12526.63	3.9060	3.9060	-0.2713	25.76	-0.00	-1.500			
0.1966	12580.92	3.9030	3.9030	-0.2925	25.76	-0.00	-1.500			
0.1975	12639.25	3.9000	3.9001	-0.3133	25.76	-0.00	-1.500			
0.1985	12701.47	3.8970	3.8970	-0.3338	25.76	-0.00	-1.500			
0.1995	12767.25	3.8940	3.8940	-0.3537	25.76	-0.00	-1.500			
0.2006	12836.70	3.8910	3.8910	-0.3752	25.76	-0.00	-1.500			
0.2017	12911.45	3.8880	3.8880	-0.3952	25.76	-0.00	-1.500			
0.2030	12989.41	3.8850	3.8850	-0.4142	25.76	-0.00	-1.500			
0.2042	13071.30	3.8820	3.8820	-0.4332	25.76	-0.00	-1.500			
0.2056	13156.66	3.8790	3.8791	-0.4495	25.76	0.00	-1.500			
0.2069	13244.77	3.8760	3.8759	-0.4660	25.76	0.00	-1.500			
0.2084	13336.15	3.8730	3.8730	-0.4791	25.76	0.00	-1.500			
0.2098	13429.32	3.8700	3.8700	-0.4914	25.76	0.00	-1.500			
0.2113	13524.80	3.8670	3.8670	-0.5073	25.76	0.00	-1.500			
0.2129	13623.61	3.8640	3.8640	-0.5192	25.76	0.00	-1.500			
0.2145	13724.87	3.8610	3.8610	-0.5299	25.76	0.00	-1.500			
0.2161	13828.83	3.8580	3.8579	-0.5405	25.76	0.00	-1.500			
0.2177	13933.45	3.8550	3.8551	-0.5484	25.77	0.01	-1.500			
0.2194	14040.18	3.8520	3.8520	-0.5587	25.77	0.01	-1.500			
0.2211	14147.69	3.8490	3.8490	-0.5646	25.77	0.01	-1.500			
0.2228	14256.28	3.8460	3.8460	-0.5696	25.77	0.01	-1.500			
0.2245	14367.26	3.8430	3.8430	-0.5780	25.77	0.01	-1.500			
0.2262	14479.74	3.8400	3.8400	-0.5843	25.77	0.01	-1.500			
0.2280	14591.93	3.8370	3.8370	-0.5898	25.77	0.01	-1.500			
0.2298	14706.14	3.8340	3.8340	-0.5929	25.77	0.01	-1.500			
0.2316	14820.08	3.8310	3.8310	-0.5969	25.77	0.01	-1.500			
0.2334	14935.12	3.8280	3.8280	-0.6014	25.77	0.01	-1.500			
0.2352	15051.08	3.8250	3.8250	-0.6045	25.78	0.02	-1.500			
0.2370	15167.87	3.8220	3.8220	-0.6072	25.78	0.02	-1.500			
0.2388	15284.73	3.8190	3.8190	-0.6103	25.78	0.02	-1.500			
0.2407	15401.87	3.8160	3.8160	-0.6116	25.78	0.02	-1.500			
0.2425	15520.22	3.8130	3.8130	-0.6150	25.78	0.02	-1.500			
0.2443	15638.16	3.8100	3.8100	-0.6141	25.79	0.03	-1.500			
0.2462	15756.33	3.8070	3.8070	-0.6169	25.79	0.03	-1.500			
0.2480	15874.90	3.8040	3.8040	-0.6197	25.79	0.03	-1.500			
0.2499	15993.83	3.8010	3.8010	-0.6223	25.79	0.03	-1.500			
0.2518	16113.14	3.7980	3.7980	-0.6241	25.80	0.04	-1.500			
0.2536	16233.54	3.7950	3.7950	-0.6260	25.80	0.04	-1.500			
0.2555	16353.49	3.7920	3.7921	-0.6303	25.80	0.04	-1.500			
0.2574	16475.39	3.7890	3.7889	-0.6343	25.81	0.05	-1.500			
0.2593	16597.33	3.7860	3.7860	-0.6350	25.81	0.05	-1.500			
0.2612	16719.74	3.7830	3.7830	-0.6378	25.81	0.05	-1.500			
0.2632	16842.67	3.7800	3.7800	-0.6389	25.82	0.06	-1.500			
0.2651	16965.55	3.7770	3.7770	-0.6414	25.82	0.06	-1.500			
0.2670	17088.33	3.7740	3.7740	-0.6450	25.83	0.07	-1.500			
0.2689	17211.48	3.7710	3.7709	-0.6487	25.83	0.07	-1.500			
0.2709	17336.28	3.7680	3.7680	-0.6531	25.84	0.08	-1.500			
0.2728	17462.36	3.7650	3.7650	-0.6587	25.84	0.08	-1.500			
0.2748	17590.34	3.7620	3.7620	-0.6613	25.85	0.09	-1.500			
0.2768	17718.33	3.7590	3.7589	-0.6630	25.85	0.09	-1.500			
0.2788	17844.79	3.7560	3.7561	-0.6646	25.86	0.10	-1.500			
0.2808	17972.59	3.7530	3.7530	-0.6659	25.86	0.10	-1.500			
0.2828	18099.72	3.7500	3.7500	-0.6699	25.87	0.11	-1.500			
0.2848	18228.27	3.7470	3.7470	-0.6772	25.87	0.11	-1.500			
0.2868	18357.87	3.7440	3.7441	-0.6835	25.88	0.12	-1.500			
0.2889	18490.92	3.7410	3.7410	-0.6907	25.88	0.12	-1.500			
0.2910	18623.95	3.7380	3.7380	-0.7001	25.89	0.13	-1.500			
0.2931	18759.74	3.7350	3.7350	-0.7049	25.89	0.13	-1.500			
0.2953	18896.30	3.7320	3.7321	-0.7117	25.90	0.14	-1.500			
0.2974	19032.93	3.7290	3.7290	-0.7151	25.90	0.14	-1.500			
0.2995	19169.86	3.7260	3.7261	-0.7188	25.91	0.15	-1.500			
0.3017	19308.59	3.7230	3.7230	-0.7257	25.91	0.15	-1.500			
0.3039	19448.39	3.7200	3.7200	-0.7337	25.92	0.16	-1.500			
0.3061	19589.09	3.7170	3.7169	-0.7388	25.92	0.16	-1.500			
0.3083	19732.65	3.7140	3.7140	-0.7476	25.93	0.17	-1.500			
0.3106	19876.45	3.7110	3.7110	-0.7525	25.93	0.17	-1.500			
0.3128	20021.69	3.7080	3.7080	-0.7606	25.94	0.18	-1.500			
0.3151	20168.80	3.7050	3.7049	-0.7659	25.94	0.18	-1.500			
0.3174	20315.51	3.7020	3.7020	-0.7713	25.94	0.18	-1.500			
0.3197	20463.52	3.6990	3.6991	-0.7802	25.95	0.19	-1.500			
0.3221	20614.32	3.6960	3.6960	-0.7889	25.95	0.19	-1.500			
0.3245	20766.46	3.6930	3.6930	-0.7987	25.96	0.20	-1.500			
0.3269	20920.69	3.6900	3.6900	-0.8060	25.96	0.20	-1.500			
0.3293	21076.26	3.6870	3.6870	-0.8144	25.97	0.21	-1.500			
0.3318	21235.03	3.6840	3.6840	-0.8234	25.97	0.21	-1.500			
0.3343	21393.16	3.6810	3.6810	-0.8310	25.98	0.22	-1.500			
0.3368	21552.73	3.6780	3.6780	-0.8374	25.98	0.22	-1.500			
0.3393	21714.27	3.6750	3.6750	-0.8491	25.99	0.23	-1.500			
0.3418	21877.46	3.6720	3.6720	-0.8572	25.99	0.23	-1.500			
0.3444	22044.14	3.6690	3.6690	-0.8646	26.00	0.24	-1.500			
0.3471	22211.30	3.6660	3.6660	-0.8742	26.00	0.24	-1.500			
0.3497	22380.14	3.6630	3.6630	-0.8814	26.01	0.25	-1.500			
0.3523	22548.93	3.6600	3.6600	-0.8913	26.01	0.25	-1.500			
0.3550	22720.90	3.6570	3.6571	-0.8975	26.02	0.26	-1.500			
0.3577	22893.35	3.6540	3.6540	-0.9072	26.03	0.27	-1.500			
0.3604	23068.37	3.6510	3.6510	-0.9205	26.03	0.27	-1.500			
0.3632	23246.57	3.6480	3.6480	-0.9322	26.04	0.28	-1.500			
0.3660	23425.86	3.6450	3.6450	-0.9465	26.04	0.28	-1.500			
0.3689	23609.17	3.6420	3.6420	-0.9596	26.05	0.29	-1.500			
0.3718	23794.81	3.6390	3.6390	-0.9687	26.05	0.29	-1.500			
0.3747	23983.66	3.6360	3.6360	-0.9829	26.06	0.30	-1.500			
0.3777	24172.86	3.6330	3.6331	-0.9881	26.07	0.31	-1.500			
0.3807	24363.21	3.6300	3.6300	-0.9968	26.07	0.31	-1.500			
0.3837	24554.65	3.6270	3.6271	-1.0104	26.07	0.31	-1.500			
0.3867	24748.52	3.6240	3.6240	-1.0217	26.08	0.32	-1.500			
0.3898	24946.10	3.6210	3.6210	-1.0332	26.08	0.32	-1.500			
0.3929	25145.48	3.6180	3.6180	-1.0542	26.09	0.33	-1.500			
0.3961	25349.99	3.6150	3.6150	-1.0643	26.09	0.33	-1.500			
0.3993	25557.70	3.6120	3.6120	-1.0770	26.09	0.33	-1.500			
0.4026	25765.32	3.6090	3.6091	-1.0846	26.10	0.34	-1.500			
0.4058	25973.32	3.6060	3.6060	-1.0955	26.10	0.34	-1.500			
0.4091	26184.93	3.6030	3.6030	-1.1129	26.11	0.35	-1.500			
0.4125	26398.20	3.6000	3.6000	-1.1278	26.11	0.35	-1.500			
0.4159	26615.47	3.5970	3.5970	-1.1383	26.12	0.36	-1.500			
0.4193	26837.79	3.5940	3.5940	-1.1593	26.13	0.37	-1.500			
0.4228	27062.25	3.5910	3.5910	-1.1660	26.14	0.38	-1.500			
0.4264	27286.70	3.5880	3.5880	-1.1829	26.14	0.38	-1.500			
0.4299	27513.31	3.5850	3.5849	-1.2022	26.15	0.39	-1.500			
0.4335	27744.56	3.5820	3.5820	-1.2158	26.15	0.39	-1.500			
0.4372	27981.18	3.5790	3.5790	-1.2325	26.16	0.40	-1.500			
0.4409	28219.59	3.5760	3.5761	-1.2556	26.16	0.40	-1.500			
0.4447	28461.50	3.5730	3.5730	-1.2727	26.17	0.41	-1.500			
0.4486	28708.89	3.5700	3.5699	-1.2929	26.17	0.41	-1.500			
0.4525	28956.96	3.5670	3.5669	-1.3088	26.18	0.42	-1.500			
0.4564	29208.51	3.5640	3.5641	-1.3280	26.18	0.42	-1.500			
0.4605	29469.02	3.5610	3.5610	-1.3454	26.19	0.43	-1.500			
0.4645	29730.23	3.5580	3.5580	-1.3656	26.20	0.44	-1.500			
0.4686	29992.25	3.5550	3.5550	-1.3685	26.20	0.44	-1.500			
0.4728	30256.65	3.5520	3.5521	-1.3922	26.21	0.45	-1.500			
0.4770	30525.42	3.5490	3.5489	-1.4043	26.22	0.46	-1.500			
0.4812	30793.95	3.5460	3.5460	-1.4288	26.22	0.46	-1.500			
0.4855	31069.12	3.5430	3.5430	-1.4523	26.23	0.47	-1.500			
0.4899	31352.73	3.5400	3.5400	-1.4758	26.24	0.48	-1.500			
0.4944	31639.90	3.5370	3.5370	-1.4946	26.25	0.49	-1.500			
0.4989	31930.28	3.5340	3.5340	-1.5182	26.26	0.50	-1.500			
0.5035	32221.55	3.5310	3.5309	-1.5413	26.27	0.51	-1.500			
0.5082	32521.81	3.5280	3.5279	-1.5560	26.28	0.52	-1.500			
0.5128	32819.35	3.5250	3.5250	-1.5738	26.29	0.53	-1.500	0.370	0.547	
0.5176	33125.39	3.5220	3.5221	-1.5831	26.30	0.54	-1.500			
0.5224	33431.59	3.5190	3.5189	-1.5889	26.30	0.54	-1.500			
0.5272	33739.08	3.5160	3.5160	-1.6005	26.31	0.55	-1.500			
0.5319	34044.01	3.5130	3.5130	-1.6043	26.32	0.56	-1.500			
0.5367	34351.54	3.5100	3.5100	-1.6171	26.33	0.57	-1.500			
0.5416	34664.72	3.5070	3.5070	-1.6295	26.34	0.58	-1.500			
0.5465	34977.50	3.5040	3.5040	-1.6289	26.35	0.59	-1.500			
0.5515	35294.14	3.5010	3.5009	-1.6437	26.35	0.59	-1.500			
0.5564	35609.89	3.4980	3.4981	-1.6493	26.36	0.60	-1.500			
0.5613	35926.18	3.4950	3.4950	-1.6485	26.38	0.62	-1.500			
0.5663	36243.62	3.4920	3.4919	-1.6510	26.40	0.64	-1.500			
0.5713	36560.05	3.4890	3.4890	-1.6394	26.41	0.65	-1.500			
0.5762	36878.37	3.4860	3.4860	-1.6419	26.43	0.67	-1.500			
0.5812	37195.16	3.4830	3.4830	-1.6392	26.44	0.68	-1.500			
0.5860	37505.81	3.4800	3.4800	-1.6306	26.45	0.69	-1.500			
0.5909	37817.25	3.4770	3.4770	-1.6281	26.47	0.71	-1.500			
0.5958	38131.56	3.4740	3.4740	-1.6204	26.48	0.72	-1.500			
0.6007	38444.59	3.4710	3.4710	-1.6120	26.49	0.73	-1.500			
0.6056	38755.24	3.4680	3.4681	-1.5930	26.50	0.74	-1.500			
0.6103	39061.58	3.4650	3.4650	-1.5739	26.52	0.76	-1.500			
0.6150	39359.53	3.4620	3.4620	-1.5552	26.53	0.77	-1.500			
0.6196	39652.77	3.4590	3.4590	-1.5304	26.55	0.79	-1.500			
0.6241	39945.19	3.4560	3.4559	-1.5181	26.56	0.80	-1.500			
0.6287	40234.64	3.4530	3.4530	-1.5046	26.58	0.82	-1.500			
0.6332	40525.30	3.4500	3.4500	-1.4854	26.59	0.83	-1.500			
0.6376	40809.36	3.4470	3.4470	-1.4639	26.61	0.85	-1.500			
0.6420	41088.61	3.4440	3.4441	-1.4424	26.63	0.87	-1.500			
0.6463	41362.29	3.4410	3.4410	-1.4184	26.65	0.89	-1.500			
0.6505	41631.27	3.4380	3.4379	-1.4043	26.66	0.90	-1.500			
0.6547	41898.78	3.4350	3.4350	-1.3870	26.68	0.92	-1.500			
0.6588	42163.69	3.4320	3.4320	-1.3677	26.70	0.94	-1.500			
0.6629	42426.54	3.4290	3.4291	-1.3540	26.72	0.96	-1.500			
0.6670	42686.53	3.4260	3.4260	-1.3420	26.73	0.97	-1.500			
0.6710	42942.93	3.4230	3.4230	-1.3220	26.75	0.99	-1.500			
0.6749	43195.48	3.4200	3.4199	-1.2981	26.77	1.01	-1.500			
0.6788	43441.89	3.4170	3.4171	-1.2731	26.78	1.02	-1.500			
0.6826	43686.45	3.4140	3.4139	-1.2500	26.79	1.03	-1.500			
0.6863	43923.64	3.4110	3.4110	-1.2225	26.81	1.05	-1.500			
0.6899	44152.13	3.4080	3.4080	-1.1943	26.83	1.07	-1.500			
0.6935	44382.39	3.4050	3.4050	-1.1753	26.85	1.09	-1.500			
0.6970	44607.77	3.4020	3.4019	-1.1499	26.87	1.11	-1.500			
0.7004	44827.75	3.3990	3.3991	-1.1157	26.88	1.12	-1.500			
0.7037	45038.61	3.3960	3.3959	-1.0858	26.89	1.13	-1.500			
0.7069	45243.44	3.3930	3.3930	-1.0566	26.90	1.14	-1.500			
0.7100	45441.60	3.3900	3.3899	-1.0229	26.92	1.16	-1.500			
0.7130	45634.97	3.3870	3.3869	-0.9906	26.93	1.17	-1.500			
0.7160	45821.27	3.3840	3.3841	-0.9594	26.95	1.19	-1.500			
0.7188	46006.38	3.3810	3.3810	-0.9354	26.96	1.20	-1.500			
0.7216	46182.27	3.3780	3.3779	-0.9094	26.97	1.21	-1.500			
0.7242	46351.28	3.3750	3.3750	-0.8772	26.99	1.23	-1.500			
0.7268	46517.92	3.3720	3.3720	-0.8534	27.00	1.24	-1.500			
0.7294	46680.95	3.3690	3.3691	-0.8317	27.01	1.25	-1.500			
0.7319	46838.95	3.3660	3.3659	-0.8072	27.02	1.26	-1.500			
0.7342	46990.59	3.3630	3.3630	-0.7809	27.03	1.27	-1.500			
0.7365	47137.75	3.3600	3.3600	-0.7589	27.05	1.29	-1.500			
0.7387	47279.67	3.3570	3.3570	-0.7337	27.06	1.30	-1.500			
0.7409	47419.03	3.3540	3.3540	-0.7125	27.07	1.31	-1.500			
0.7430	47553.90	3.3510	3.3511	-0.6939	27.08	1.32	-1.500			
0.7451	47685.61	3.3480	3.3480	-0.6747	27.09	1.33	-1.500			
0.7471	47812.95	3.3450	3.3450	-0.6564	27.10	1.34	-1.500			
0.7490	47936.33	3.3420	3.3420	-0.6381	27.11	1.35	-1.500			
0.7509	48056.53	3.3390	3.3390	-0.6235	27.12	1.36	-1.500			
0.7527	48175.55	3.3360	3.3359	-0.6080	27.12	1.36	-1.500			
0.7545	48290.94	3.3330	3.3329	-0.5923	27.13	1.37	-1.500			
0.7563	48402.85	3.3300	3.3300	-0.5774	27.14	1.38	-1.500			
0.7580	48512.56	3.3270	3.3270	-0.5632	27.15	1.39	-1.500			
0.7597	48619.00	3.3240	3.3240	-0.5465	27.16	1.40	-1.500			
0.7613	48722.60	3.3210	3.3210	-0.5314	27.16	1.40	-1.500			
0.7629	48822.81	3.3180	3.3180	-0.5167	27.17	1.41	-1.500			
0.7644	48920.73	3.3150	3.3150	-0.5061	27.18	1.42	-1.500			
0.7659	49015.93	3.3120	3.3120	-0.4925	27.19	1.43	-1.500			
0.7673	49108.94	3.3090	3.3089	-0.4812	27.20	1.44	-1.500			
0.7688	49200.28	3.3060	3.3060	-0.4711	27.20	1.44	-1.500			
0.7702	49290.14	3.3030	3.3030	-0.4617	27.21	1.45	-1.500			
0.7715	49378.17	3.3000	3.3000	-0.4518	27.22	1.46	-1.500			
0.7729	49463.90	3.2970	3.2970	-0.4408	27.23	1.47	-1.500			
0.7742	49546.88	3.2940	3.2940	-0.4302	27.23	1.47	-1.500			
0.7755	49629.24	3.2910	3.2909	-0.4204	27.24	1.48	-1.500			
0.7767	49708.57	3.2880	3.2880	-0.4091	27.25	1.49	-1.500			
0.7779	49785.91	3.2850	3.2849	-0.3983	27.26	1.50	-1.500			
0.7791	49860.75	3.2820	3.2820	-0.3910	27.26	1.50	-1.500			
0.7802	49934.94	3.2790	3.2790	-0.3819	27.27	1.51	-1.500			
0.7814	50007.43	3.2760	3.2760	-0.3741	27.28	1.52	-1.500			
0.7825	50078.50	3.2730	3.2730	-0.3662	27.29	1.53	-1.500			
0.7836	50148.61	3.2700	3.2699	-0.3596	27.29	1.53	-1.500			
0.7846	50217.01	3.2670	3.2670	-0.3516	27.30	1.54	-1.500			
0.7857	50283.96	3.2640	3.2640	-0.3422	27.31	1.55	-1.500			
0.7867	50347.94	3.2610	3.2610	-0.3339	27.32	1.56	-1.500			
0.7877	50412.00	3.2580	3.2580	-0.3277	27.32	1.56	-1.500			
0.7886	50473.46	3.2550	3.2550	-0.3210	27.33	1.57	-1.500			
0.7896	50534.57	3.2520	3.2519	-0.3135	27.34	1.58	-1.500			
0.7905	50593.91	3.2490	3.2491	-0.3074	27.34	1.58	-1.500			
0.7914	50652.26	3.2460	3.2461	-0.3026	27.35	1.59	-1.500			
0.7923	50710.22	3.2430	3.2430	-0.2977	27.36	1.60	-1.500			
0.7932	50766.43	3.2400	3.2399	-0.2916	27.36	1.60	-1.500			
0.7941	50821.82	3.2370	3.2370	-0.2869	27.37	1.61	-1.500			
0.7949	50876.54	3.2340	3.2340	-0.2814	27.37	1.61	-1.500			
0.7958	50930.75	3.2310	3.2309	-0.2775	27.38	1.62	-1.500			
0.7966	50983.12	3.2280	3.2280	-0.2712	27.39	1.63	-1.500			
0.7974	51033.90	3.2250	3.2251	-0.2667	27.39	1.63	-1.500			
0.7982	51084.85	3.2220	3.2220	-0.2631	27.40	1.64	-1.500			
0.7990	51134.97	3.2190	3.2190	-0.2589	27.40	1.64	-1.500			
0.7998	51184.57	3.2160	3.2160	-0.2542	27.41	1.65	-1.500			
0.8005	51233.08	3.2130	3.2131	-0.2506	27.42	1.66	-1.500			
0.8013	51280.80	3.2100	3.2100	-0.2473	27.42	1.66	-1.500			
0.8020	51327.59	3.2070	3.2071	-0.2426	27.43	1.67	-1.500			
0.8027	51373.43	3.2040	3.2039	-0.2393	27.43	1.67	-1.500			
0.8034	51419.07	3.2010	3.2010	-0.2359	27.44	1.68	-1.500			
0.8041	51464.12	3.1980	3.1980	-0.2335	27.44	1.68	-1.500			
0.8048	51508.83	3.1950	3.1951	-0.2313	27.45	1.69	-1.500			
0.8055	51553.35	3.1920	3.1919	-0.2291	27.46	1.70	-1.500			
0.8062	51596.62	3.1890	3.1890	-0.2259	27.46	1.70	-1.500			
0.8069	51639.88	3.1860	3.1860	-0.2228	27.47	1.71	-1.500			
0.8075	51682.43	3.1830	3.1831	-0.2201	27.47	1.71	-1.500			
0.8082	51724.42	3.1800	3.1799	-0.2173	27.48	1.72	-1.500			
0.8088	51766.19	3.1770	3.1770	-0.2145	27.48	1.72	-1.500			
0.8095	51806.78	3.1740	3.1739	-0.2115	27.49	1.73	-1.500			
0.8101	51846.95	3.1710	3.1710	-0.2086	27.50	1.74	-1.500			
0.8107	51886.78	3.1680	3.1680	-0.2063	27.50	1.74	-1.500			
0.8113	51925.97	3.1650	3.1650	-0.2041	27.51	1.75	-1.500			
0.8120	51965.20	3.1620	3.1620	-0.2019	27.51	1.75	-1.500			
0.8126	52003.65	3.1590	3.1590	-0.1995	27.52	1.76	-1.500			
0.8132	52041.73	3.1560	3.1560	-0.1972	27.52	1.76	-1.500			
0.8137	52079.42	3.1530	3.1530	-0.1952	27.53	1.77	-1.500			
0.8143	52116.47	3.1500	3.1500	-0.1933	27.53	1.77	-1.500			
0.8149	52153.46	3.1470	3.1470	-0.1913	27.54	1.78	-1.500			
0.8155	52190.01	3.1440	3.1440	-0.1895	27.54	1.78	-1.500			
0.8160	52226.15	3.1410	3.1408	-0.1877	27.55	1.79	-1.500			
0.8166	52262.12	3.1380	3.1381	-0.1865	27.55	1.79	-1.500			
0.8172	52297.63	3.1350	3.1350	-0.1849	27.56	1.80	-1.500			
0.8177	52332.99	3.1320	3.1320	-0.1835	27.57	1.81	-1.500			
0.8183	52368.19	3.1290	3.1290	-0.1812	27.57	1.81	-1.500			
0.8188	52402.60	3.1260	3.1261	-0.1798	27.58	1.82	-1.500			
0.8193	52437.24	3.1230	3.1230	-0.1786	27.58	1.82	-1.500			
0.8199	52471.34	3.1200	3.1200	-0.1767	27.59	1.83	-1.500			
0.8204	52505.12	3.1170	3.1169	-0.1745	27.60	1.84	-1.500			
0.8209	52538.22	3.1140	3.1141	-0.1729	27.60	1.84	-1.500			
0.8214	52571.22	3.1110	3.1110	-0.1713	27.61	1.85	-1.500			
0.8219	52603.99	3.1080	3.1080	-0.1700	27.61	1.85	-1.500			
0.8224	52636.59	3.1050	3.1049	-0.1691	27.62	1.86	-1.500			
0.8229	52668.58	3.1020	3.1021	-0.1676	27.62	1.86	-1.500			
0.8235	52700.80	3.0990	3.0990	-0.1673	27.63	1.87	-1.500			
0.8240	52732.90	3.0960	3.0960	-0.1661	27.63	1.87	-1.500			
0.8245	52764.86	3.0930	3.0930	-0.1650	27.64	1.88	-1.500			
0.8249	52796.35	3.0900	3.0900	-0.1636	27.65	1.89	-1.500			
0.8254	52827.78	3.0870	3.0871	-0.1626	27.65	1.89	-1.500			
0.8259	52858.82	3.0840	3.0839	-0.1612	27.66	1.90	-1.500			
0.8264	52889.57	3.0810	3.0810	-0.1597	27.66	1.90	-1.500			
0.8269	52920.02	3.0780	3.0780	-0.1583	27.67	1.91	-1.500			
0.8273	52950.30	3.0750	3.0750	-0.1572	27.67	1.91	-1.500			
0.8278	52980.32	3.0720	3.0720	-0.1565	27.68	1.92	-1.500			
0.8283	53010.29	3.0690	3.0690	-0.1553	27.68	1.92	-1.500			
0.8287	53039.98	3.0660	3.0660	-0.1543	27.69	1.93	-1.500			
0.8292	53069.59	3.0630	3.0629	-0.1530	27.69	1.93	-1.500			
0.8297	53098.75	3.0600	3.0601	-0.1525	27.70	1.94	-1.500			
0.8301	53128.11	3.0570	3.0570	-0.1513	27.70	1.94	-1.500			
0.8306	53157.08	3.0540	3.0541	-0.1502	27.71	1.95	-1.500			
0.8310	53185.77	3.0510	3.0509	-0.1492	27.72	1.96	-1.500			
0.8315	53214.25	3.0480	3.0481	-0.1479	27.72	1.96	-1.500			
0.8319	53242.44	3.0450	3.0451	-0.1475	27.73	1.97	-1.500			
0.8324	53270.70	3.0420	3.0419	-0.1468	27.73	1.97	-1.500			
0.8328	53298.93	3.0390	3.0390	-0.1455	27.74	1.98	-1.500			
0.8332	53326.56	3.0360	3.0359	-0.1442	27.75	1.99	-1.500			
0.8337	53354.41	3.0330	3.0330	-0.1439	27.75	1.99	-1.500			
0.8341	53381.93	3.0300	3.0301	-0.1427	27.76	2.00	-1.500			
0.8345	53409.18	3.0270	3.0269	-0.1415	27.76	2.00	-1.500			
0.8349	53436.13	3.0240	3.0240	-0.1408	27.77	2.01	-1.500			
0.8354	53462.79	3.0210	3.0210	-0.1395	27.78	2.02	-1.500			
0.8358	53489.53	3.0180	3.0180	-0.1395	27.78	2.02	-1.500			
0.8362	53516.67	3.0150	3.0149	-0.1387	27.79	2.03	-1.500			
0.8366	53543.20	3.0120	3.0119	-0.1377	27.79	2.03	-1.500			
0.8370	53569.78	3.0090	3.0091	-0.1367	27.80	2.04	-1.500			
0.8374	53595.87	3.0060	3.0061	-0.1351	27.81	2.05	-1.500			
0.8378	53621.62	3.0030	3.0030	-0.1306	27.81	2.05	-1.500			
