Ah_balance (normalized)	Ah_balance (mAh)	Voltage - fit (V)	Voltage -  interpolate (V)	dQ/dV (1/V)	Temperature (°C)	Temperature - diff (°C)	Current (C)	R_DC 0ms (mOhm)	R_DC 50ms (mOhm)	R_DC 50 ms PEC (mOhm)
0.1871	11976.79	3.9280	3.9279	-0.0864	25.82	-0.00	-1.500			
0.1874	11996.44	3.9250	3.9249	-0.1142	25.82	-0.00	-1.500			
0.1878	12020.77	3.9220	3.9219	-0.1392	25.82	-0.00	-1.500			
0.1883	12050.31	3.9190	3.9190	-0.1629	25.82	-0.00	-1.500			
0.1888	12084.16	3.9160	3.9160	-0.1847	25.82	-0.00	-1.500			
0.1894	12122.68	3.9130	3.9130	-0.2079	25.82	-0.00	-1.500			
0.1901	12164.57	3.9100	3.9100	-0.2282	25.82	-0.00	-1.500			
0.1908	12210.36	3.9070	3.9070	-0.2488	25.82	-0.00	-1.500			
0.1916	12259.92	3.9040	3.9040	-0.2692	25.82	-0.00	-1.500			
0.1924	12313.74	3.9010	3.9010	-0.2889	25.82	0.00	-1.500			
0.1933	12371.13	3.8980	3.8980	-0.3079	25.82	0.00	-1.500			
0.1943	12432.39	3.8950	3.8950	-0.3267	25.82	0.00	-1.500			
0.1953	12497.33	3.8920	3.8920	-0.3439	25.82	0.00	-1.500			
0.1963	12564.91	3.8890	3.8889	-0.3620	25.82	0.00	-1.500			
0.1974	12635.71	3.8860	3.8861	-0.3810	25.82	0.00	-1.500			
0.1986	12710.44	3.8830	3.8830	-0.4008	25.82	0.00	-1.500			
0.1998	12789.69	3.8800	3.8800	-0.4177	25.83	0.01	-1.500			
0.2011	12871.76	3.8770	3.8770	-0.4352	25.83	0.01	-1.500			
0.2025	12957.66	3.8740	3.8741	-0.4499	25.83	0.01	-1.500			
0.2038	13045.82	3.8710	3.8710	-0.4635	25.83	0.01	-1.500			
0.2053	13136.08	3.8680	3.8680	-0.4742	25.83	0.01	-1.500			
0.2067	13228.17	3.8650	3.8650	-0.4854	25.83	0.01	-1.500			
0.2082	13322.04	3.8620	3.8621	-0.4985	25.83	0.01	-1.500			
0.2097	13419.34	3.8590	3.8589	-0.5113	25.83	0.01	-1.500			
0.2112	13518.51	3.8560	3.8560	-0.5206	25.84	0.02	-1.500			
0.2128	13619.95	3.8530	3.8531	-0.5321	25.84	0.02	-1.500			
0.2144	13723.64	3.8500	3.8500	-0.5393	25.84	0.02	-1.500			
0.2161	13828.17	3.8470	3.8469	-0.5481	25.84	0.02	-1.500			
0.2177	13934.34	3.8440	3.8441	-0.5519	25.84	0.02	-1.500			
0.2194	14040.50	3.8410	3.8409	-0.5568	25.84	0.02	-1.500			
0.2211	14148.65	3.8380	3.8380	-0.5613	25.85	0.03	-1.500			
0.2228	14257.02	3.8350	3.8350	-0.5650	25.85	0.03	-1.500			
0.2245	14365.24	3.8320	3.8320	-0.5684	25.85	0.03	-1.500			
0.2262	14475.05	3.8290	3.8290	-0.5729	25.85	0.03	-1.500			
0.2279	14584.31	3.8260	3.8260	-0.5775	25.86	0.04	-1.500			
0.2296	14696.25	3.8230	3.8230	-0.5847	25.86	0.04	-1.500			
0.2314	14809.04	3.8200	3.8200	-0.5898	25.86	0.04	-1.500			
0.2332	14923.63	3.8170	3.8170	-0.5938	25.87	0.05	-1.500			
0.2350	15037.89	3.8140	3.8140	-0.5987	25.87	0.05	-1.500			
0.2368	15153.44	3.8110	3.8110	-0.6016	25.87	0.05	-1.500			
0.2386	15269.61	3.8080	3.8080	-0.6034	25.87	0.05	-1.500			
0.2404	15385.20	3.8050	3.8050	-0.6047	25.88	0.06	-1.500			
0.2422	15501.58	3.8020	3.8021	-0.6075	25.88	0.06	-1.500			
0.2440	15618.08	3.7990	3.7990	-0.6117	25.88	0.06	-1.500			
0.2459	15736.38	3.7960	3.7960	-0.6154	25.89	0.07	-1.500			
0.2477	15854.49	3.7930	3.7930	-0.6179	25.89	0.07	-1.500			
0.2496	15973.53	3.7900	3.7900	-0.6210	25.90	0.08	-1.500			
0.2515	16094.10	3.7870	3.7870	-0.6251	25.90	0.08	-1.500			
0.2533	16213.98	3.7840	3.7841	-0.6288	25.91	0.09	-1.500			
0.2552	16334.64	3.7810	3.7810	-0.6314	25.91	0.09	-1.500			
0.2571	16456.17	3.7780	3.7780	-0.6341	25.92	0.10	-1.500			
0.2590	16578.01	3.7750	3.7750	-0.6390	25.92	0.10	-1.500			
0.2610	16700.81	3.7720	3.7720	-0.6427	25.92	0.10	-1.500			
0.2629	16825.42	3.7690	3.7690	-0.6466	25.93	0.11	-1.500			
0.2648	16949.26	3.7660	3.7660	-0.6515	25.93	0.11	-1.500			
0.2668	17074.37	3.7630	3.7630	-0.6556	25.94	0.12	-1.500			
0.2688	17201.63	3.7600	3.7600	-0.6600	25.94	0.12	-1.500			
0.2708	17329.29	3.7570	3.7569	-0.6628	25.95	0.13	-1.500			
0.2728	17456.11	3.7540	3.7541	-0.6678	25.95	0.13	-1.500			
0.2748	17584.81	3.7510	3.7510	-0.6730	25.96	0.14	-1.500			
0.2768	17714.15	3.7480	3.7480	-0.6777	25.96	0.14	-1.500			
0.2788	17844.64	3.7450	3.7450	-0.6798	25.97	0.15	-1.500			
0.2809	17975.91	3.7420	3.7420	-0.6842	25.97	0.15	-1.500			
0.2829	18107.02	3.7390	3.7390	-0.6937	25.98	0.16	-1.500			
0.2850	18241.01	3.7360	3.7361	-0.6988	25.98	0.16	-1.500			
0.2871	18374.99	3.7330	3.7329	-0.7022	25.99	0.17	-1.500			
0.2892	18511.12	3.7300	3.7300	-0.7088	25.99	0.17	-1.500			
0.2914	18648.32	3.7270	3.7271	-0.7127	26.00	0.18	-1.500			
0.2935	18785.61	3.7240	3.7239	-0.7146	26.00	0.18	-1.500			
0.2957	18922.49	3.7210	3.7211	-0.7217	26.01	0.19	-1.500			
0.2978	19060.51	3.7180	3.7180	-0.7266	26.01	0.19	-1.500			
0.3000	19200.56	3.7150	3.7150	-0.7380	26.02	0.20	-1.500			
0.3022	19343.60	3.7120	3.7120	-0.7451	26.02	0.20	-1.500			
0.3045	19487.23	3.7090	3.7090	-0.7547	26.03	0.21	-1.500			
0.3068	19634.13	3.7060	3.7061	-0.7607	26.03	0.21	-1.500			
0.3091	19781.14	3.7030	3.7030	-0.7664	26.04	0.22	-1.500			
0.3114	19927.40	3.7000	3.7000	-0.7699	26.05	0.23	-1.500			
0.3137	20075.58	3.6970	3.6971	-0.7752	26.05	0.23	-1.500			
0.3160	20224.54	3.6940	3.6939	-0.7796	26.06	0.24	-1.500			
0.3184	20374.85	3.6910	3.6910	-0.7911	26.06	0.24	-1.500			
0.3207	20527.45	3.6880	3.6881	-0.7964	26.07	0.25	-1.500			
0.3232	20681.94	3.6850	3.6850	-0.8057	26.07	0.25	-1.500			
0.3256	20837.34	3.6820	3.6819	-0.8101	26.08	0.26	-1.500			
0.3280	20993.80	3.6790	3.6791	-0.8170	26.09	0.27	-1.500			
0.3305	21149.87	3.6760	3.6760	-0.8261	26.09	0.27	-1.500			
0.3329	21308.58	3.6730	3.6730	-0.8359	26.10	0.28	-1.500			
0.3355	21469.83	3.6700	3.6699	-0.8394	26.10	0.28	-1.500			
0.3380	21633.81	3.6670	3.6669	-0.8477	26.11	0.29	-1.500			
0.3406	21797.25	3.6640	3.6641	-0.8565	26.12	0.30	-1.500			
0.3431	21961.52	3.6610	3.6612	-0.8665	26.12	0.30	-1.500			
0.3458	22128.53	3.6580	3.6579	-0.8731	26.13	0.31	-1.500			
0.3484	22296.20	3.6550	3.6550	-0.8823	26.13	0.31	-1.500			
0.3510	22466.00	3.6520	3.6520	-0.8910	26.13	0.31	-1.500			
0.3538	22640.39	3.6490	3.6490	-0.8994	26.14	0.32	-1.500			
0.3565	22813.60	3.6460	3.6460	-0.9114	26.14	0.32	-1.500			
0.3592	22987.61	3.6430	3.6430	-0.9190	26.15	0.33	-1.500			
0.3620	23164.82	3.6400	3.6401	-0.9256	26.15	0.33	-1.500			
0.3648	23344.56	3.6370	3.6369	-0.9383	26.16	0.34	-1.500			
0.3676	23525.18	3.6340	3.6341	-0.9473	26.16	0.34	-1.500			
0.3704	23708.53	3.6310	3.6311	-0.9596	26.16	0.34	-1.500			
0.3733	23894.14	3.6280	3.6279	-0.9737	26.17	0.35	-1.500			
0.3763	24081.44	3.6250	3.6249	-0.9765	26.17	0.35	-1.500			
0.3792	24269.08	3.6220	3.6220	-0.9878	26.17	0.35	-1.500			
0.3822	24460.53	3.6190	3.6190	-1.0006	26.18	0.36	-1.500			
0.3852	24653.92	3.6160	3.6161	-1.0117	26.18	0.36	-1.500			
0.3883	24848.76	3.6130	3.6130	-1.0242	26.19	0.37	-1.500			
0.3913	25046.04	3.6100	3.6100	-1.0333	26.19	0.37	-1.500			
0.3945	25245.78	3.6070	3.6070	-1.0442	26.19	0.37	-1.500			
0.3976	25448.78	3.6040	3.6040	-1.0584	26.20	0.38	-1.500			
0.4008	25650.18	3.6010	3.6010	-1.0724	26.20	0.38	-1.500			
0.4040	25857.15	3.5980	3.5980	-1.0891	26.21	0.39	-1.500			
0.4073	26067.19	3.5950	3.5950	-1.1073	26.21	0.39	-1.500			
0.4107	26283.28	3.5920	3.5920	-1.1236	26.22	0.40	-1.500			
0.4141	26502.95	3.5890	3.5890	-1.1433	26.22	0.40	-1.500			
0.4176	26724.70	3.5860	3.5860	-1.1535	26.23	0.41	-1.500			
0.4210	26946.41	3.5830	3.5830	-1.1642	26.23	0.41	-1.500			
0.4245	27168.58	3.5800	3.5800	-1.1770	26.24	0.42	-1.500			
0.4281	27396.56	3.5770	3.5770	-1.1931	26.24	0.42	-1.500			
0.4317	27625.64	3.5740	3.5739	-1.2164	26.25	0.43	-1.500			
0.4353	27862.11	3.5710	3.5710	-1.2375	26.25	0.43	-1.500			
0.4391	28102.92	3.5680	3.5680	-1.2576	26.26	0.44	-1.500			
0.4429	28347.06	3.5650	3.5652	-1.2730	26.26	0.44	-1.500			
0.4468	28594.30	3.5620	3.5620	-1.2823	26.27	0.45	-1.500			
0.4506	28839.66	3.5590	3.5591	-1.3010	26.27	0.45	-1.500			
0.4545	29089.75	3.5560	3.5560	-1.3169	26.28	0.46	-1.500			
0.4585	29344.55	3.5530	3.5530	-1.3372	26.29	0.47	-1.500			
0.4626	29603.24	3.5500	3.5500	-1.3529	26.29	0.47	-1.500			
0.4666	29864.68	3.5470	3.5471	-1.3757	26.30	0.48	-1.500			
0.4708	30131.21	3.5440	3.5440	-1.3967	26.31	0.49	-1.500			
0.4750	30402.41	3.5410	3.5409	-1.4148	26.31	0.49	-1.500			
0.4793	30673.36	3.5380	3.5380	-1.4320	26.32	0.50	-1.500			
0.4836	30952.13	3.5350	3.5350	-1.4467	26.33	0.51	-1.500			
0.4880	31231.83	3.5320	3.5320	-1.4690	26.33	0.51	-1.500			
0.4924	31516.08	3.5290	3.5291	-1.4835	26.34	0.52	-1.500			
0.4969	31800.58	3.5260	3.5260	-1.4962	26.35	0.53	-1.500			
0.5014	32089.53	3.5230	3.5229	-1.5128	26.35	0.53	-1.500			
0.5060	32382.17	3.5200	3.5200	-1.5249	26.36	0.54	-1.500	0.372	0.559	
0.5106	32677.74	3.5170	3.5170	-1.5332	26.37	0.55	-1.500			
0.5152	32972.57	3.5140	3.5139	-1.5439	26.38	0.56	-1.500			
0.5198	33267.81	3.5110	3.5110	-1.5486	26.38	0.56	-1.500			
0.5245	33567.20	3.5080	3.5080	-1.5650	26.39	0.57	-1.500			
0.5292	33866.94	3.5050	3.5049	-1.5790	26.40	0.58	-1.500			
0.5340	34172.94	3.5020	3.5020	-1.5833	26.41	0.59	-1.500			
0.5388	34480.82	3.4990	3.4990	-1.5960	26.41	0.59	-1.500			
0.5436	34790.82	3.4960	3.4960	-1.5952	26.42	0.60	-1.500			
0.5484	35096.23	3.4930	3.4930	-1.5893	26.43	0.61	-1.500			
0.5531	35399.52	3.4900	3.4900	-1.5945	26.44	0.62	-1.500			
0.5579	35706.26	3.4870	3.4869	-1.5864	26.45	0.63	-1.500			
0.5627	36010.10	3.4840	3.4840	-1.5858	26.46	0.64	-1.500			
0.5674	36315.04	3.4810	3.4812	-1.5867	26.47	0.65	-1.500			
0.5722	36619.85	3.4780	3.4780	-1.5843	26.48	0.66	-1.500			
0.5770	36925.65	3.4750	3.4749	-1.5767	26.50	0.68	-1.500			
0.5817	37227.79	3.4720	3.4720	-1.5597	26.51	0.69	-1.500			
0.5863	37526.17	3.4690	3.4691	-1.5501	26.52	0.70	-1.500			
0.5910	37823.64	3.4660	3.4660	-1.5349	26.54	0.72	-1.500			
0.5956	38115.64	3.4630	3.4630	-1.5164	26.55	0.73	-1.500			
0.6001	38404.98	3.4600	3.4600	-1.5023	26.56	0.74	-1.500			
0.6046	38692.12	3.4570	3.4570	-1.4890	26.57	0.75	-1.500			
0.6090	38978.39	3.4540	3.4540	-1.4766	26.59	0.77	-1.500			
0.6134	39260.55	3.4510	3.4509	-1.4616	26.60	0.78	-1.500			
0.6178	39538.89	3.4480	3.4481	-1.4422	26.61	0.79	-1.500			
0.6221	39814.41	3.4450	3.4450	-1.4243	26.63	0.81	-1.500			
0.6263	40083.23	3.4420	3.4420	-1.4100	26.64	0.82	-1.500			
0.6305	40353.40	3.4390	3.4390	-1.3933	26.66	0.84	-1.500			
0.6347	40621.89	3.4360	3.4360	-1.3789	26.67	0.85	-1.500			
0.6388	40883.88	3.4330	3.4329	-1.3604	26.69	0.87	-1.500			
0.6429	41143.87	3.4300	3.4302	-1.3431	26.70	0.88	-1.500			
0.6469	41401.10	3.4270	3.4270	-1.3250	26.72	0.90	-1.500			
0.6508	41653.22	3.4240	3.4240	-1.3064	26.73	0.91	-1.500			
0.6547	41901.27	3.4210	3.4210	-1.2895	26.75	0.93	-1.500			
0.6586	42149.63	3.4180	3.4180	-1.2700	26.76	0.94	-1.500			
0.6624	42391.18	3.4150	3.4150	-1.2456	26.78	0.96	-1.500			
0.6661	42628.83	3.4120	3.4120	-1.2192	26.79	0.97	-1.500			
0.6697	42860.53	3.4090	3.4090	-1.1916	26.81	0.99	-1.500			
0.6732	43086.03	3.4060	3.4059	-1.1633	26.83	1.01	-1.500			
0.6766	43304.54	3.4030	3.4031	-1.1383	26.84	1.02	-1.500			
0.6800	43519.57	3.4000	3.3999	-1.1091	26.86	1.04	-1.500			
0.6833	43734.11	3.3970	3.3970	-1.0886	26.87	1.05	-1.500			
0.6866	43940.19	3.3940	3.3940	-1.0555	26.89	1.07	-1.500			
0.6897	44141.35	3.3910	3.3911	-1.0276	26.90	1.08	-1.500			
0.6927	44335.07	3.3880	3.3880	-0.9935	26.91	1.09	-1.500			
0.6956	44519.94	3.3850	3.3850	-0.9619	26.92	1.10	-1.500			
0.6985	44700.83	3.3820	3.3820	-0.9350	26.94	1.12	-1.500			
0.7012	44877.02	3.3790	3.3788	-0.9139	26.95	1.13	-1.500			
0.7039	45050.57	3.3760	3.3761	-0.8897	26.96	1.14	-1.500			
0.7066	45219.58	3.3730	3.3730	-0.8703	26.97	1.15	-1.500			
0.7092	45386.44	3.3700	3.3700	-0.8483	26.99	1.17	-1.500			
0.7117	45548.41	3.3670	3.3669	-0.8199	27.00	1.18	-1.500			
0.7141	45701.52	3.3640	3.3641	-0.7898	27.01	1.19	-1.500			
0.7164	45849.95	3.3610	3.3610	-0.7674	27.02	1.20	-1.500			
0.7186	45992.84	3.3580	3.3580	-0.7418	27.03	1.21	-1.500			
0.7208	46132.88	3.3550	3.3549	-0.7223	27.04	1.22	-1.500			
0.7229	46267.88	3.3520	3.3519	-0.7004	27.05	1.23	-1.500			
0.7250	46402.38	3.3490	3.3491	-0.6882	27.06	1.24	-1.500			
0.7271	46533.56	3.3460	3.3459	-0.6712	27.07	1.25	-1.500			
0.7291	46660.74	3.3430	3.3430	-0.6519	27.07	1.25	-1.500			
0.7310	46784.10	3.3400	3.3401	-0.6346	27.08	1.26	-1.500			
0.7329	46903.43	3.3370	3.3370	-0.6204	27.09	1.27	-1.500			
0.7347	47021.17	3.3340	3.3340	-0.6051	27.10	1.28	-1.500			
0.7365	47135.63	3.3310	3.3309	-0.5888	27.11	1.29	-1.500			
0.7382	47246.61	3.3280	3.3280	-0.5737	27.12	1.30	-1.500			
0.7399	47355.98	3.3250	3.3250	-0.5627	27.13	1.31	-1.500			
0.7416	47462.87	3.3220	3.3220	-0.5484	27.14	1.32	-1.500			
0.7432	47565.99	3.3190	3.3191	-0.5358	27.14	1.32	-1.500			
0.7448	47667.73	3.3160	3.3160	-0.5194	27.15	1.33	-1.500			
0.7464	47766.95	3.3130	3.3130	-0.5076	27.16	1.34	-1.500			
0.7479	47862.89	3.3100	3.3100	-0.4947	27.17	1.35	-1.500			
0.7493	47955.72	3.3070	3.3070	-0.4825	27.18	1.36	-1.500			
0.7507	48046.72	3.3040	3.3040	-0.4707	27.19	1.37	-1.500			
0.7521	48136.52	3.3010	3.3010	-0.4606	27.19	1.37	-1.500			
0.7535	48223.73	3.2980	3.2980	-0.4483	27.20	1.38	-1.500			
0.7548	48309.87	3.2950	3.2950	-0.4386	27.21	1.39	-1.500			
0.7561	48392.39	3.2920	3.2921	-0.4280	27.22	1.40	-1.500			
0.7574	48473.38	3.2890	3.2890	-0.4178	27.22	1.40	-1.500			
0.7586	48551.95	3.2860	3.2859	-0.4067	27.23	1.41	-1.500			
0.7598	48629.07	3.2830	3.2830	-0.3996	27.24	1.42	-1.500			
0.7610	48704.98	3.2800	3.2800	-0.3917	27.25	1.43	-1.500			
0.7622	48779.50	3.2770	3.2770	-0.3836	27.25	1.43	-1.500			
0.7633	48852.88	3.2740	3.2739	-0.3738	27.26	1.44	-1.500			
0.7644	48923.75	3.2710	3.2710	-0.3621	27.27	1.45	-1.500			
0.7655	48992.48	3.2680	3.2681	-0.3537	27.28	1.46	-1.500			
0.7665	49059.00	3.2650	3.2650	-0.3454	27.28	1.46	-1.500			
0.7676	49123.50	3.2620	3.2619	-0.3351	27.29	1.47	-1.500			
0.7685	49187.09	3.2590	3.2589	-0.3294	27.30	1.48	-1.500			
0.7695	49249.22	3.2560	3.2561	-0.3244	27.31	1.49	-1.500			
0.7705	49311.44	3.2530	3.2530	-0.3210	27.31	1.49	-1.500			
0.7714	49372.72	3.2500	3.2499	-0.3161	27.32	1.50	-1.500			
0.7724	49432.88	3.2470	3.2469	-0.3097	27.32	1.50	-1.500			
0.7733	49491.86	3.2440	3.2441	-0.3033	27.33	1.51	-1.500			
0.7742	49549.99	3.2410	3.2410	-0.2984	27.34	1.52	-1.500			
0.7751	49606.46	3.2380	3.2380	-0.2918	27.34	1.52	-1.500			
0.7760	49661.71	3.2350	3.2350	-0.2857	27.35	1.53	-1.500			
0.7768	49715.42	3.2320	3.2320	-0.2803	27.35	1.53	-1.500			
0.7776	49768.61	3.2290	3.2290	-0.2765	27.36	1.54	-1.500			
0.7785	49821.48	3.2260	3.2260	-0.2728	27.37	1.55	-1.500			
0.7793	49873.56	3.2230	3.2229	-0.2677	27.37	1.55	-1.500			
0.7801	49924.54	3.2200	3.2200	-0.2634	27.38	1.56	-1.500			
0.7809	49974.69	3.2170	3.2171	-0.2598	27.38	1.56	-1.500			
0.7816	50024.02	3.2140	3.2140	-0.2554	27.39	1.57	-1.500			
0.7824	50072.62	3.2110	3.2109	-0.2514	27.39	1.57	-1.500			
0.7831	50120.22	3.2080	3.2080	-0.2467	27.40	1.58	-1.500			
0.7839	50167.02	3.2050	3.2051	-0.2433	27.40	1.58	-1.500			
0.7846	50213.63	3.2020	3.2020	-0.2404	27.41	1.59	-1.500			
0.7853	50259.76	3.1990	3.1990	-0.2370	27.42	1.60	-1.500			
0.7860	50304.47	3.1960	3.1960	-0.2334	27.42	1.60	-1.500			
0.7867	50348.83	3.1930	3.1930	-0.2299	27.43	1.61	-1.500			
0.7874	50392.71	3.1900	3.1900	-0.2272	27.43	1.61	-1.500			
0.7881	50436.03	3.1870	3.1869	-0.2254	27.44	1.62	-1.500			
0.7887	50479.43	3.1840	3.1840	-0.2218	27.44	1.62	-1.500			
0.7894	50521.41	3.1810	3.1809	-0.2190	27.45	1.63	-1.500			
0.7901	50563.21	3.1780	3.1780	-0.2164	27.45	1.63	-1.500			
0.7907	50604.51	3.1750	3.1751	-0.2149	27.46	1.64	-1.500			
0.7913	50645.72	3.1720	3.1718	-0.2108	27.46	1.64	-1.500			
0.7920	50685.94	3.1690	3.1690	-0.2083	27.47	1.65	-1.500			
0.7926	50725.41	3.1660	3.1661	-0.2060	27.47	1.65	-1.500			
0.7932	50764.43	3.1630	3.1631	-0.2033	27.48	1.66	-1.500			
0.7938	50803.45	3.1600	3.1599	-0.2022	27.49	1.67	-1.500			
0.7944	50841.58	3.1570	3.1570	-0.1992	27.49	1.67	-1.500			
0.7950	50879.84	3.1540	3.1540	-0.1973	27.50	1.68	-1.500			
0.7956	50917.60	3.1510	3.1511	-0.1960	27.51	1.69	-1.500			
0.7962	50955.63	3.1480	3.1480	-0.1956	27.51	1.69	-1.500			
0.7968	50992.91	3.1450	3.1450	-0.1932	27.52	1.70	-1.500			
0.7973	51029.98	3.1420	3.1419	-0.1905	27.52	1.70	-1.500			
0.7979	51066.31	3.1390	3.1390	-0.1879	27.53	1.71	-1.500			
0.7985	51101.94	3.1360	3.1361	-0.1866	27.54	1.72	-1.500			
0.7990	51137.70	3.1330	3.1331	-0.1847	27.54	1.72	-1.500			
0.7996	51172.94	3.1300	3.1299	-0.1829	27.55	1.73	-1.500			
0.8001	51207.87	3.1270	3.1269	-0.1810	27.56	1.74	-1.500			
0.8007	51241.98	3.1240	3.1241	-0.1796	27.56	1.74	-1.500			
0.8012	51276.43	3.1210	3.1210	-0.1790	27.57	1.75	-1.500			
0.8017	51311.18	3.1180	3.1179	-0.1780	27.57	1.75	-1.500			
0.8023	51345.16	3.1150	3.1149	-0.1760	27.58	1.76	-1.500			
0.8028	51378.47	3.1120	3.1120	-0.1744	27.58	1.76	-1.500			
0.8033	51412.19	3.1090	3.1091	-0.1733	27.59	1.77	-1.500			
0.8038	51445.13	3.1060	3.1059	-0.1717	27.60	1.78	-1.500			
0.8043	51477.95	3.1030	3.1030	-0.1701	27.60	1.78	-1.500			
0.8048	51510.16	3.1000	3.1000	-0.1686	27.61	1.79	-1.500			
0.8054	51542.42	3.0970	3.0969	-0.1672	27.61	1.79	-1.500			
0.8059	51574.76	3.0940	3.0940	-0.1666	27.62	1.80	-1.500			
0.8064	51606.58	3.0910	3.0910	-0.1649	27.63	1.81	-1.500			
0.8068	51637.93	3.0880	3.0880	-0.1632	27.63	1.81	-1.500			
0.8073	51669.12	3.0850	3.0849	-0.1625	27.64	1.82	-1.500			
0.8078	51700.08	3.0820	3.0820	-0.1608	27.64	1.82	-1.500			
0.8083	51730.86	3.0790	3.0790	-0.1598	27.65	1.83	-1.500			
0.8088	51761.54	3.0760	3.0759	-0.1581	27.65	1.83	-1.500			
0.8092	51791.62	3.0730	3.0731	-0.1576	27.66	1.84	-1.500			
0.8097	51821.80	3.0700	3.0700	-0.1567	27.66	1.84	-1.500			
0.8102	51851.74	3.0670	3.0670	-0.1562	27.67	1.85	-1.500			
0.8106	51881.59	3.0640	3.0639	-0.1552	27.67	1.85	-1.500			
0.8111	51911.35	3.0610	3.0610	-0.1539	27.68	1.86	-1.500			
0.8116	51940.82	3.0580	3.0581	-0.1531	27.69	1.87	-1.500			
0.8120	51970.45	3.0550	3.0551	-0.1520	27.69	1.87	-1.500			
0.8125	51999.64	3.0520	3.0520	-0.1513	27.70	1.88	-1.500			
0.8129	52028.14	3.0490	3.0490	-0.1495	27.70	1.88	-1.500			
0.8134	52056.79	3.0460	3.0460	-0.1489	27.71	1.89	-1.500			
0.8138	52085.30	3.0430	3.0430	-0.1475	27.71	1.89	-1.500			
0.8143	52113.48	3.0400	3.0400	-0.1469	27.72	1.90	-1.500			
0.8147	52141.60	3.0370	3.0371	-0.1464	27.72	1.90	-1.500			
0.8152	52169.65	3.0340	3.0339	-0.1457	27.73	1.91	-1.500			
0.8156	52197.54	3.0310	3.0310	-0.1449	27.73	1.91	-1.500			
0.8160	52225.32	3.0280	3.0280	-0.1436	27.74	1.92	-1.500			
0.8165	52252.90	3.0250	3.0250	-0.1427	27.74	1.92	-1.500			
0.8169	52280.20	3.0220	3.0221	-0.1416	27.74	1.92	-1.500			
0.8173	52307.40	3.0190	3.0190	-0.1414	27.75	1.93	-1.500			
0.8177	52334.34	3.0160	3.0159	-0.1397	27.75	1.93	-1.500			
0.8181	52360.88	3.0130	3.0130	-0.1390	27.76	1.94	-1.500			
0.8186	52387.54	3.0100	3.0100	-0.1386	27.76	1.94	-1.500			
0.8190	52414.07	3.0070	3.0071	-0.1383	27.77	1.95	-1.500			
0.8194	52440.69	3.0040	3.0039	-0.1375	27.77	1.95	-1.500			
0.8198	52467.02	3.0010	3.0010	-0.1369	27.78	1.96	-1.500			
