Ah_balance (normalized)	Ah_balance (mAh)	Voltage - fit (V)	Voltage -  interpolate (V)	dQ/dV (1/V)	Temperature (°C)	Temperature - diff (°C)	Current (C)	R_DC 0ms (mOhm)	R_DC 50ms (mOhm)	R_DC 50 ms PEC (mOhm)
0.1954	12507.95	3.9290	3.9287	-0.0730	25.76	0.00	-1.500			
0.1957	12524.36	3.9260	3.9258	-0.0979	25.76	0.00	-1.500			
0.1960	12545.69	3.9230	3.9229	-0.1228	25.76	0.00	-1.500			
0.1964	12571.75	3.9200	3.9200	-0.1470	25.76	0.00	-1.500			
0.1969	12602.44	3.9170	3.9169	-0.1705	25.76	0.00	-1.500			
0.1975	12637.63	3.9140	3.9140	-0.1928	25.76	0.00	-1.500			
0.1981	12677.88	3.9110	3.9110	-0.2141	25.76	0.00	-1.500			
0.1988	12721.51	3.9080	3.9080	-0.2346	25.76	0.00	-1.500			
0.1995	12768.46	3.9050	3.9051	-0.2546	25.76	0.00	-1.500			
0.2003	12818.94	3.9020	3.9020	-0.2737	25.76	0.00	-1.500			
0.2011	12873.13	3.8990	3.8990	-0.2933	25.76	0.00	-1.500			
0.2020	12930.98	3.8960	3.8960	-0.3125	25.76	0.00	-1.500			
0.2030	12993.05	3.8930	3.8930	-0.3320	25.76	0.00	-1.500			
0.2041	13059.28	3.8900	3.8900	-0.3515	25.76	0.00	-1.500			
0.2051	13128.54	3.8870	3.8870	-0.3687	25.76	0.00	-1.500			
0.2063	13201.48	3.8840	3.8841	-0.3860	25.76	0.00	-1.500			
0.2075	13277.22	3.8810	3.8810	-0.4032	25.76	0.00	-1.500			
0.2087	13356.36	3.8780	3.8780	-0.4179	25.76	0.00	-1.500			
0.2100	13438.19	3.8750	3.8750	-0.4335	25.76	0.00	-1.500			
0.2113	13523.40	3.8720	3.8720	-0.4474	25.76	0.00	-1.500			
0.2127	13610.40	3.8690	3.8690	-0.4609	25.76	0.00	-1.500			
0.2141	13700.48	3.8660	3.8660	-0.4733	25.76	0.00	-1.500			
0.2155	13792.42	3.8630	3.8630	-0.4851	25.76	0.00	-1.500			
0.2170	13886.39	3.8600	3.8600	-0.4977	25.76	0.00	-1.500			
0.2185	13983.72	3.8570	3.8570	-0.5100	25.76	0.00	-1.500			
0.2201	14083.34	3.8540	3.8540	-0.5185	25.76	0.00	-1.500			
0.2216	14184.37	3.8510	3.8510	-0.5269	25.76	0.00	-1.500			
0.2232	14286.47	3.8480	3.8481	-0.5343	25.76	0.00	-1.500			
0.2248	14390.10	3.8450	3.8449	-0.5410	25.76	0.00	-1.500			
0.2265	14494.51	3.8420	3.8420	-0.5452	25.76	0.00	-1.500			
0.2281	14599.34	3.8390	3.8390	-0.5502	25.76	0.00	-1.500			
0.2298	14706.27	3.8360	3.8360	-0.5565	25.76	0.00	-1.500			
0.2315	14813.51	3.8330	3.8330	-0.5622	25.76	0.00	-1.500			
0.2331	14921.36	3.8300	3.8299	-0.5670	25.76	0.00	-1.500			
0.2348	15030.27	3.8270	3.8271	-0.5731	25.76	0.00	-1.500			
0.2366	15141.48	3.8240	3.8239	-0.5780	25.77	0.01	-1.500			
0.2383	15253.01	3.8210	3.8210	-0.5837	25.77	0.01	-1.500			
0.2401	15365.97	3.8180	3.8180	-0.5888	25.77	0.01	-1.500			
0.2419	15479.92	3.8150	3.8150	-0.5921	25.77	0.01	-1.500			
0.2437	15594.43	3.8120	3.8120	-0.5945	25.77	0.01	-1.500			
0.2455	15708.81	3.8090	3.8091	-0.5975	25.78	0.02	-1.500			
0.2472	15823.82	3.8060	3.8060	-0.5969	25.78	0.02	-1.500			
0.2490	15938.34	3.8030	3.8030	-0.6000	25.78	0.02	-1.500			
0.2508	16052.05	3.8000	3.8000	-0.6024	25.78	0.02	-1.500			
0.2526	16168.60	3.7970	3.7970	-0.6048	25.78	0.02	-1.500			
0.2545	16285.25	3.7940	3.7940	-0.6097	25.79	0.03	-1.500			
0.2563	16402.57	3.7910	3.7909	-0.6133	25.79	0.03	-1.500			
0.2581	16520.84	3.7880	3.7882	-0.6185	25.79	0.03	-1.500			
0.2600	16641.10	3.7850	3.7849	-0.6222	25.80	0.04	-1.500			
0.2619	16760.06	3.7820	3.7821	-0.6232	25.80	0.04	-1.500			
0.2638	16880.12	3.7790	3.7790	-0.6277	25.81	0.05	-1.500			
0.2657	17001.75	3.7760	3.7760	-0.6333	25.81	0.05	-1.500			
0.2675	17122.63	3.7730	3.7730	-0.6352	25.82	0.06	-1.500			
0.2694	17244.36	3.7700	3.7700	-0.6388	25.82	0.06	-1.500			
0.2714	17367.40	3.7670	3.7670	-0.6424	25.82	0.06	-1.500			
0.2733	17491.81	3.7640	3.7640	-0.6478	25.83	0.07	-1.500			
0.2753	17616.50	3.7610	3.7610	-0.6501	25.83	0.07	-1.500			
0.2772	17742.23	3.7580	3.7580	-0.6523	25.84	0.08	-1.500			
0.2792	17867.54	3.7550	3.7550	-0.6552	25.84	0.08	-1.500			
0.2811	17992.51	3.7520	3.7521	-0.6585	25.85	0.09	-1.500			
0.2831	18119.23	3.7490	3.7490	-0.6647	25.85	0.09	-1.500			
0.2851	18246.94	3.7460	3.7459	-0.6720	25.86	0.10	-1.500			
0.2871	18376.72	3.7430	3.7430	-0.6782	25.86	0.10	-1.500			
0.2892	18507.53	3.7400	3.7401	-0.6820	25.86	0.10	-1.500			
0.2913	18640.10	3.7370	3.7370	-0.6903	25.87	0.11	-1.500			
0.2933	18772.87	3.7340	3.7340	-0.6932	25.87	0.11	-1.500			
0.2954	18904.98	3.7310	3.7309	-0.6973	25.88	0.12	-1.500			
0.2975	19039.51	3.7280	3.7281	-0.7048	25.88	0.12	-1.500			
0.2996	19175.87	3.7250	3.7249	-0.7122	25.89	0.13	-1.500			
0.3018	19313.80	3.7220	3.7220	-0.7206	25.89	0.13	-1.500			
0.3040	19453.27	3.7190	3.7190	-0.7251	25.89	0.13	-1.500			
0.3061	19591.78	3.7160	3.7160	-0.7310	25.90	0.14	-1.500			
0.3083	19733.46	3.7130	3.7130	-0.7368	25.90	0.14	-1.500			
0.3105	19874.54	3.7100	3.7100	-0.7412	25.91	0.15	-1.500			
0.3128	20017.48	3.7070	3.7070	-0.7480	25.91	0.15	-1.500			
0.3150	20161.87	3.7040	3.7040	-0.7522	25.92	0.16	-1.500			
0.3173	20306.89	3.7010	3.7010	-0.7601	25.92	0.16	-1.500			
0.3196	20454.04	3.6980	3.6980	-0.7658	25.93	0.17	-1.500			
0.3219	20600.38	3.6950	3.6950	-0.7688	25.93	0.17	-1.500			
0.3242	20748.96	3.6920	3.6920	-0.7794	25.93	0.17	-1.500			
0.3266	20899.25	3.6890	3.6890	-0.7850	25.94	0.18	-1.500			
0.3289	21050.68	3.6860	3.6860	-0.7907	25.94	0.18	-1.500			
0.3313	21203.28	3.6830	3.6830	-0.7978	25.95	0.19	-1.500			
0.3337	21355.90	3.6800	3.6800	-0.8047	25.95	0.19	-1.500			
0.3361	21512.10	3.6770	3.6769	-0.8114	25.96	0.20	-1.500			
0.3386	21667.79	3.6740	3.6740	-0.8188	25.96	0.20	-1.500			
0.3410	21824.40	3.6710	3.6710	-0.8297	25.97	0.21	-1.500			
0.3435	21985.74	3.6680	3.6681	-0.8412	25.97	0.21	-1.500			
0.3461	22148.68	3.6650	3.6649	-0.8497	25.98	0.22	-1.500			
0.3486	22312.71	3.6620	3.6620	-0.8569	25.98	0.22	-1.500			
0.3512	22477.91	3.6590	3.6590	-0.8668	25.99	0.23	-1.500			
0.3538	22645.60	3.6560	3.6560	-0.8760	25.99	0.23	-1.500			
0.3565	22814.21	3.6530	3.6529	-0.8792	26.00	0.24	-1.500			
0.3591	22982.84	3.6500	3.6500	-0.8857	26.00	0.24	-1.500			
0.3618	23153.93	3.6470	3.6470	-0.8976	26.01	0.25	-1.500			
0.3645	23327.06	3.6440	3.6440	-0.9082	26.01	0.25	-1.500			
0.3672	23502.24	3.6410	3.6410	-0.9174	26.02	0.26	-1.500			
0.3700	23679.66	3.6380	3.6379	-0.9214	26.02	0.26	-1.500			
0.3728	23857.35	3.6350	3.6350	-0.9345	26.03	0.27	-1.500			
0.3756	24037.37	3.6320	3.6320	-0.9454	26.03	0.27	-1.500			
0.3784	24218.69	3.6290	3.6289	-0.9551	26.03	0.27	-1.500			
0.3813	24402.82	3.6260	3.6260	-0.9647	26.04	0.28	-1.500			
0.3842	24590.79	3.6230	3.6230	-0.9728	26.04	0.28	-1.500			
0.3872	24779.56	3.6200	3.6200	-0.9846	26.05	0.29	-1.500			
0.3901	24968.94	3.6170	3.6170	-0.9992	26.06	0.30	-1.500			
0.3931	25159.54	3.6140	3.6140	-1.0074	26.06	0.30	-1.500			
0.3962	25354.41	3.6110	3.6109	-1.0192	26.07	0.31	-1.500			
0.3992	25551.85	3.6080	3.6081	-1.0313	26.07	0.31	-1.500			
0.4024	25751.95	3.6050	3.6050	-1.0451	26.08	0.32	-1.500			
0.4055	25953.94	3.6020	3.6020	-1.0596	26.09	0.33	-1.500			
0.4087	26157.44	3.5990	3.5990	-1.0712	26.09	0.33	-1.500			
0.4119	26364.66	3.5960	3.5960	-1.0821	26.10	0.34	-1.500			
0.4152	26573.82	3.5930	3.5931	-1.1004	26.10	0.34	-1.500			
0.4185	26786.75	3.5900	3.5900	-1.1186	26.11	0.35	-1.500			
0.4219	27003.37	3.5870	3.5870	-1.1315	26.11	0.35	-1.500			
0.4253	27222.10	3.5840	3.5839	-1.1441	26.12	0.36	-1.500			
0.4288	27442.51	3.5810	3.5810	-1.1578	26.13	0.37	-1.500			
0.4323	27665.83	3.5780	3.5781	-1.1769	26.13	0.37	-1.500			
0.4359	27894.59	3.5750	3.5750	-1.1919	26.14	0.38	-1.500			
0.4394	28124.19	3.5720	3.5720	-1.2067	26.15	0.39	-1.500			
0.4431	28357.33	3.5690	3.5691	-1.2286	26.15	0.39	-1.500			
0.4468	28595.78	3.5660	3.5660	-1.2492	26.16	0.40	-1.500			
0.4506	28837.16	3.5630	3.5630	-1.2672	26.17	0.41	-1.500			
0.4544	29082.63	3.5600	3.5599	-1.2797	26.18	0.42	-1.500			
0.4583	29329.25	3.5570	3.5570	-1.2954	26.18	0.42	-1.500			
0.4622	29580.91	3.5540	3.5541	-1.3151	26.19	0.43	-1.500			
0.4661	29833.46	3.5510	3.5510	-1.3281	26.20	0.44	-1.500			
0.4701	30089.25	3.5480	3.5480	-1.3458	26.21	0.45	-1.500			
0.4742	30350.41	3.5450	3.5450	-1.3651	26.22	0.46	-1.500			
0.4784	30614.46	3.5420	3.5420	-1.3832	26.23	0.47	-1.500			
0.4825	30882.73	3.5390	3.5390	-1.4026	26.24	0.48	-1.500			
0.4868	31152.41	3.5360	3.5360	-1.4190	26.25	0.49	-1.500			
0.4910	31426.22	3.5330	3.5330	-1.4394	26.26	0.50	-1.500			
0.4954	31704.88	3.5300	3.5300	-1.4584	26.27	0.51	-1.500			
0.4998	31988.58	3.5270	3.5270	-1.4743	26.28	0.52	-1.500			
0.5043	32273.96	3.5240	3.5240	-1.4889	26.29	0.53	-1.500			
0.5088	32562.30	3.5210	3.5209	-1.5011	26.31	0.55	-1.500	0.374	0.563	
0.5133	32851.32	3.5180	3.5180	-1.5092	26.32	0.56	-1.500			
0.5178	33140.54	3.5150	3.5150	-1.5202	26.33	0.57	-1.500			
0.5224	33431.39	3.5120	3.5121	-1.5331	26.34	0.58	-1.500			
0.5270	33725.88	3.5090	3.5090	-1.5464	26.36	0.60	-1.500			
0.5317	34028.61	3.5060	3.5060	-1.5658	26.37	0.61	-1.500			
0.5364	34330.89	3.5030	3.5030	-1.5769	26.38	0.62	-1.500			
0.5412	34638.25	3.5000	3.5000	-1.5870	26.40	0.64	-1.500			
0.5460	34943.57	3.4970	3.4970	-1.5866	26.41	0.65	-1.500			
0.5507	35247.70	3.4940	3.4941	-1.5845	26.42	0.66	-1.500			
0.5555	35551.00	3.4910	3.4910	-1.5840	26.44	0.68	-1.500			
0.5602	35854.61	3.4880	3.4880	-1.5870	26.45	0.69	-1.500			
0.5650	36157.71	3.4850	3.4849	-1.5890	26.47	0.71	-1.500			
0.5698	36464.25	3.4820	3.4820	-1.5790	26.48	0.72	-1.500			
0.5745	36769.74	3.4790	3.4790	-1.5795	26.50	0.74	-1.500			
0.5793	37074.42	3.4760	3.4760	-1.5705	26.51	0.75	-1.500			
0.5840	37373.94	3.4730	3.4730	-1.5629	26.53	0.77	-1.500			
0.5886	37671.06	3.4700	3.4700	-1.5506	26.54	0.78	-1.500			
0.5933	37968.31	3.4670	3.4670	-1.5477	26.56	0.80	-1.500			
0.5979	38267.39	3.4640	3.4639	-1.5333	26.57	0.81	-1.500			
0.6026	38564.52	3.4610	3.4610	-1.5205	26.59	0.83	-1.500			
0.6071	38854.63	3.4580	3.4582	-1.5015	26.60	0.84	-1.500			
0.6116	39141.68	3.4550	3.4550	-1.4812	26.62	0.86	-1.500			
0.6159	39418.51	3.4520	3.4520	-1.4688	26.64	0.88	-1.500			
0.6203	39701.66	3.4490	3.4490	-1.4522	26.66	0.90	-1.500			
0.6247	39981.66	3.4460	3.4459	-1.4414	26.68	0.92	-1.500			
0.6290	40257.68	3.4430	3.4432	-1.4208	26.70	0.94	-1.500			
0.6333	40530.00	3.4400	3.4401	-1.4035	26.72	0.96	-1.500			
0.6374	40794.73	3.4370	3.4369	-1.3845	26.74	0.98	-1.500			
0.6415	41056.00	3.4340	3.4340	-1.3636	26.75	0.99	-1.500			
0.6456	41315.86	3.4310	3.4310	-1.3531	26.77	1.01	-1.500			
0.6497	41578.46	3.4280	3.4279	-1.3368	26.79	1.03	-1.500			
0.6537	41834.02	3.4250	3.4251	-1.3216	26.81	1.05	-1.500			
0.6576	42086.36	3.4220	3.4221	-1.3027	26.83	1.07	-1.500			
0.6615	42334.98	3.4190	3.4190	-1.2778	26.85	1.09	-1.500			
0.6653	42578.28	3.4160	3.4159	-1.2558	26.87	1.11	-1.500			
0.6690	42815.98	3.4130	3.4131	-1.2328	26.89	1.13	-1.500			
0.6727	43052.91	3.4100	3.4100	-1.2108	26.91	1.15	-1.500			
0.6763	43282.92	3.4070	3.4071	-1.1821	26.93	1.17	-1.500			
0.6798	43506.34	3.4040	3.4040	-1.1520	26.94	1.18	-1.500			
0.6832	43725.06	3.4010	3.4010	-1.1274	26.95	1.19	-1.500			
0.6865	43938.02	3.3980	3.3980	-1.1043	26.97	1.21	-1.500			
0.6898	44148.37	3.3950	3.3950	-1.0790	26.99	1.23	-1.500			
0.6930	44353.70	3.3920	3.3919	-1.0479	27.01	1.25	-1.500			
0.6961	44553.57	3.3890	3.3889	-1.0173	27.02	1.26	-1.500			
0.6992	44745.67	3.3860	3.3862	-0.9906	27.04	1.28	-1.500			
0.7021	44932.12	3.3830	3.3830	-0.9607	27.06	1.30	-1.500			
0.7049	45113.23	3.3800	3.3799	-0.9292	27.07	1.31	-1.500			
0.7076	45288.75	3.3770	3.3771	-0.9020	27.08	1.32	-1.500			
0.7103	45459.85	3.3740	3.3740	-0.8780	27.10	1.34	-1.500			
0.7129	45625.47	3.3710	3.3710	-0.8511	27.11	1.35	-1.500			
0.7154	45785.13	3.3680	3.3681	-0.8206	27.12	1.36	-1.500			
0.7178	45940.15	3.3650	3.3650	-0.8013	27.13	1.37	-1.500			
0.7202	46090.84	3.3620	3.3620	-0.7819	27.14	1.38	-1.500			
0.7225	46239.81	3.3590	3.3590	-0.7650	27.16	1.40	-1.500			
0.7248	46385.49	3.3560	3.3559	-0.7422	27.17	1.41	-1.500			
0.7270	46527.74	3.3530	3.3531	-0.7204	27.18	1.42	-1.500			
0.7291	46663.47	3.3500	3.3500	-0.7010	27.19	1.43	-1.500			
0.7312	46795.07	3.3470	3.3470	-0.6825	27.21	1.45	-1.500			
0.7332	46923.18	3.3440	3.3440	-0.6628	27.22	1.46	-1.500			
0.7351	47046.93	3.3410	3.3409	-0.6421	27.23	1.47	-1.500			
0.7370	47169.41	3.3380	3.3381	-0.6302	27.23	1.47	-1.500			
0.7389	47289.90	3.3350	3.3351	-0.6162	27.24	1.48	-1.500			
0.7408	47408.00	3.3320	3.3319	-0.6001	27.25	1.49	-1.500			
0.7425	47519.62	3.3290	3.3290	-0.5838	27.26	1.50	-1.500			
0.7442	47628.80	3.3260	3.3261	-0.5685	27.27	1.51	-1.500			
0.7459	47737.72	3.3230	3.3229	-0.5571	27.28	1.52	-1.500			
0.7476	47843.85	3.3200	3.3199	-0.5441	27.28	1.52	-1.500			
0.7492	47946.22	3.3170	3.3171	-0.5291	27.29	1.53	-1.500			
0.7507	48046.32	3.3140	3.3140	-0.5194	27.30	1.54	-1.500			
0.7523	48145.85	3.3110	3.3110	-0.5083	27.31	1.55	-1.500			
0.7538	48242.10	3.3080	3.3079	-0.4934	27.31	1.55	-1.500			
0.7552	48335.53	3.3050	3.3050	-0.4814	27.32	1.56	-1.500			
0.7567	48427.17	3.3020	3.3021	-0.4676	27.33	1.57	-1.500			
0.7581	48515.97	3.2990	3.2989	-0.4541	27.34	1.58	-1.500			
0.7594	48601.20	3.2960	3.2960	-0.4415	27.35	1.59	-1.500			
0.7607	48682.83	3.2930	3.2930	-0.4292	27.35	1.59	-1.500			
0.7620	48764.85	3.2900	3.2899	-0.4206	27.36	1.60	-1.500			
0.7632	48844.92	3.2870	3.2870	-0.4135	27.37	1.61	-1.500			
0.7644	48923.17	3.2840	3.2841	-0.4045	27.38	1.62	-1.500			
0.7656	49000.51	3.2810	3.2809	-0.3971	27.39	1.63	-1.500			
0.7668	49075.99	3.2780	3.2780	-0.3881	27.39	1.63	-1.500			
0.7680	49149.24	3.2750	3.2751	-0.3769	27.40	1.64	-1.500			
0.7691	49220.81	3.2720	3.2719	-0.3696	27.41	1.65	-1.500			
0.7702	49291.33	3.2690	3.2691	-0.3623	27.41	1.65	-1.500			
0.7712	49359.94	3.2660	3.2659	-0.3534	27.42	1.66	-1.500			
0.7723	49427.09	3.2630	3.2630	-0.3461	27.43	1.67	-1.500			
0.7733	49492.75	3.2600	3.2599	-0.3385	27.43	1.67	-1.500			
0.7743	49556.62	3.2570	3.2571	-0.3318	27.44	1.68	-1.500			
0.7753	49619.63	3.2540	3.2538	-0.3253	27.45	1.69	-1.500			
0.7763	49680.76	3.2510	3.2510	-0.3176	27.45	1.69	-1.500			
0.7772	49741.43	3.2480	3.2480	-0.3114	27.46	1.70	-1.500			
0.7781	49800.80	3.2450	3.2450	-0.3054	27.47	1.71	-1.500			
0.7791	49859.37	3.2420	3.2420	-0.2994	27.47	1.71	-1.500			
0.7799	49915.99	3.2390	3.2390	-0.2943	27.48	1.72	-1.500			
0.7808	49971.44	3.2360	3.2360	-0.2889	27.48	1.72	-1.500			
0.7817	50026.56	3.2330	3.2330	-0.2853	27.49	1.73	-1.500			
0.7825	50081.23	3.2300	3.2299	-0.2804	27.50	1.74	-1.500			
0.7834	50134.75	3.2270	3.2271	-0.2761	27.50	1.74	-1.500			
0.7842	50187.50	3.2240	3.2240	-0.2715	27.51	1.75	-1.500			
0.7850	50239.28	3.2210	3.2210	-0.2672	27.52	1.76	-1.500			
0.7858	50289.45	3.2180	3.2180	-0.2614	27.52	1.76	-1.500			
0.7866	50339.22	3.2150	3.2150	-0.2575	27.53	1.77	-1.500			
0.7873	50388.36	3.2120	3.2120	-0.2536	27.54	1.78	-1.500			
0.7881	50436.73	3.2090	3.2091	-0.2503	27.54	1.78	-1.500			
0.7888	50484.64	3.2060	3.2059	-0.2470	27.55	1.79	-1.500			
0.7896	50531.31	3.2030	3.2030	-0.2434	27.56	1.80	-1.500			
0.7903	50577.56	3.2000	3.2000	-0.2402	27.56	1.80	-1.500			
0.7910	50623.53	3.1970	3.1970	-0.2377	27.57	1.81	-1.500			
0.7917	50668.92	3.1940	3.1940	-0.2351	27.57	1.81	-1.500			
0.7924	50714.03	3.1910	3.1909	-0.2312	27.58	1.82	-1.500			
0.7931	50758.15	3.1880	3.1881	-0.2282	27.59	1.83	-1.500			
0.7938	50801.55	3.1850	3.1850	-0.2248	27.59	1.83	-1.500			
0.7944	50844.38	3.1820	3.1820	-0.2213	27.60	1.84	-1.500			
0.7951	50886.18	3.1790	3.1789	-0.2191	27.61	1.85	-1.500			
0.7957	50927.82	3.1760	3.1761	-0.2163	27.61	1.85	-1.500			
0.7964	50969.21	3.1730	3.1729	-0.2140	27.62	1.86	-1.500			
0.7970	51010.10	3.1700	3.1700	-0.2120	27.62	1.86	-1.500			
0.7977	51050.89	3.1670	3.1671	-0.2103	27.63	1.87	-1.500			
0.7983	51090.93	3.1640	3.1640	-0.2079	27.64	1.88	-1.500			
0.7989	51130.99	3.1610	3.1609	-0.2053	27.64	1.88	-1.500			
0.7995	51170.10	3.1580	3.1580	-0.2021	27.65	1.89	-1.500			
0.8001	51208.26	3.1550	3.1551	-0.2000	27.65	1.89	-1.500			
0.8007	51246.60	3.1520	3.1521	-0.1979	27.66	1.90	-1.500			
0.8013	51284.16	3.1490	3.1490	-0.1956	27.67	1.91	-1.500			
0.8019	51321.54	3.1460	3.1459	-0.1937	27.67	1.91	-1.500			
0.8025	51358.30	3.1430	3.1431	-0.1919	27.68	1.92	-1.500			
0.8030	51395.07	3.1400	3.1401	-0.1903	27.68	1.92	-1.500			
0.8036	51431.80	3.1370	3.1370	-0.1893	27.69	1.93	-1.500			
0.8042	51467.94	3.1340	3.1340	-0.1870	27.69	1.93	-1.500			
0.8047	51503.30	3.1310	3.1310	-0.1850	27.70	1.94	-1.500			
0.8053	51538.90	3.1280	3.1279	-0.1835	27.70	1.94	-1.500			
0.8058	51573.86	3.1250	3.1251	-0.1813	27.70	1.94	-1.500			
0.8064	51608.44	3.1220	3.1220	-0.1800	27.71	1.95	-1.500			
0.8069	51642.73	3.1190	3.1191	-0.1785	27.71	1.95	-1.500			
0.8074	51676.76	3.1160	3.1160	-0.1776	27.72	1.96	-1.500			
0.8080	51710.78	3.1130	3.1130	-0.1767	27.73	1.97	-1.500			
0.8085	51744.76	3.1100	3.1100	-0.1748	27.73	1.97	-1.500			
0.8090	51778.16	3.1070	3.1070	-0.1733	27.74	1.98	-1.500			
0.8096	51811.42	3.1040	3.1042	-0.1722	27.75	1.99	-1.500			
0.8101	51844.32	3.1010	3.1010	-0.1705	27.75	1.99	-1.500			
0.8106	51876.76	3.0980	3.0979	-0.1692	27.76	2.00	-1.500			
0.8111	51909.03	3.0950	3.0950	-0.1679	27.77	2.01	-1.500			
0.8116	51940.96	3.0920	3.0920	-0.1665	27.77	2.01	-1.500			
0.8121	51972.88	3.0890	3.0891	-0.1660	27.78	2.02	-1.500			
0.8126	52005.09	3.0860	3.0859	-0.1640	27.79	2.03	-1.500			
0.8131	52036.28	3.0830	3.0830	-0.1629	27.79	2.03	-1.500			
0.8136	52067.29	3.0800	3.0801	-0.1617	27.80	2.04	-1.500			
0.8140	52098.22	3.0770	3.0770	-0.1605	27.81	2.05	-1.500			
0.8145	52128.85	3.0740	3.0739	-0.1591	27.81	2.05	-1.500			
0.8150	52159.17	3.0710	3.0711	-0.1581	27.82	2.06	-1.500			
0.8155	52189.58	3.0680	3.0680	-0.1569	27.82	2.06	-1.500			
0.8159	52219.59	3.0650	3.0650	-0.1557	27.83	2.07	-1.500			
0.8164	52249.61	3.0620	3.0620	-0.1554	27.84	2.08	-1.500			
0.8169	52279.03	3.0590	3.0590	-0.1539	27.84	2.08	-1.500			
0.8173	52308.42	3.0560	3.0560	-0.1531	27.85	2.09	-1.500			
0.8178	52337.77	3.0530	3.0530	-0.1527	27.85	2.09	-1.500			
0.8182	52367.19	3.0500	3.0500	-0.1515	27.86	2.10	-1.500			
0.8187	52396.20	3.0470	3.0470	-0.1504	27.86	2.10	-1.500			
0.8191	52425.09	3.0440	3.0440	-0.1499	27.87	2.11	-1.500			
0.8196	52453.74	3.0410	3.0411	-0.1486	27.87	2.11	-1.500			
0.8200	52481.82	3.0380	3.0379	-0.1479	27.88	2.12	-1.500			
0.8205	52510.20	3.0350	3.0350	-0.1471	27.88	2.12	-1.500			
0.8209	52538.28	3.0320	3.0319	-0.1464	27.89	2.13	-1.500			
0.8214	52566.52	3.0290	3.0291	-0.1451	27.89	2.13	-1.500			
0.8218	52594.55	3.0260	3.0261	-0.1444	27.90	2.14	-1.500			
0.8222	52622.18	3.0230	3.0231	-0.1432	27.91	2.15	-1.500			
0.8226	52649.52	3.0200	3.0200	-0.1416	27.91	2.15	-1.500			
0.8231	52676.44	3.0170	3.0169	-0.1407	27.92	2.16	-1.500			
0.8235	52703.17	3.0140	3.0140	-0.1392	27.92	2.16	-1.500			
0.8239	52729.82	3.0110	3.0110	-0.1384	27.93	2.17	-1.500			
0.8243	52756.31	3.0080	3.0080	-0.1376	27.93	2.17	-1.500			
0.8247	52782.78	3.0050	3.0050	-0.1361	27.94	2.18	-1.500			
0.8251	52808.77	3.0020	3.0020	-0.1346	27.94	2.18	-1.501			
