Ah_balance (normalized)	Ah_balance (mAh)	Voltage - fit (V)	Voltage -  interpolate (V)	dQ/dV (1/V)	Temperature (°C)	Temperature - diff (°C)	Current (C)	R_DC 0ms (mOhm)	R_DC 50ms (mOhm)	R_DC 50 ms PEC (mOhm)
0.2106	13479.10	3.9100	3.9098	-0.1305	25.99	0.00	-1.500			
0.2111	13507.23	3.9070	3.9069	-0.1649	25.99	0.00	-1.500			
0.2116	13542.52	3.9040	3.9041	-0.2000	25.99	0.00	-1.500			
0.2123	13584.84	3.9010	3.9010	-0.2322	25.99	0.00	-1.500			
0.2130	13632.48	3.8980	3.8979	-0.2656	25.99	0.00	-1.500			
0.2139	13686.88	3.8950	3.8951	-0.2994	25.99	0.00	-1.500			
0.2148	13747.32	3.8920	3.8920	-0.3317	25.99	-0.00	-1.500			
0.2159	13814.41	3.8890	3.8890	-0.3628	25.99	-0.00	-1.500			
0.2170	13887.35	3.8860	3.8860	-0.3943	25.99	-0.00	-1.500			
0.2182	13966.09	3.8830	3.8830	-0.4245	25.99	-0.00	-1.500			
0.2195	14050.88	3.8800	3.8800	-0.4567	25.99	-0.00	-1.500			
0.2210	14140.87	3.8770	3.8770	-0.4872	25.99	-0.00	-1.500			
0.2225	14237.24	3.8740	3.8740	-0.5159	25.99	-0.00	-1.500			
0.2241	14339.40	3.8710	3.8710	-0.5461	25.99	-0.00	-1.500			
0.2257	14447.74	3.8680	3.8681	-0.5759	25.99	-0.00	-1.500			
0.2275	14561.20	3.8650	3.8649	-0.6024	25.98	-0.01	-1.500			
0.2294	14679.58	3.8620	3.8620	-0.6304	25.98	-0.01	-1.500			
0.2313	14803.40	3.8590	3.8590	-0.6544	25.98	-0.01	-1.500			
0.2333	14932.75	3.8560	3.8560	-0.6773	25.98	-0.01	-1.500			
0.2354	15065.98	3.8530	3.8529	-0.6973	25.98	-0.01	-1.500			
0.2375	15202.66	3.8500	3.8500	-0.7123	25.98	-0.01	-1.500			
0.2397	15341.11	3.8470	3.8470	-0.7254	25.98	-0.01	-1.500			
0.2419	15483.12	3.8440	3.8440	-0.7338	25.98	-0.01	-1.500			
0.2441	15623.80	3.8410	3.8410	-0.7427	25.98	-0.01	-1.500			
0.2463	15766.15	3.8380	3.8380	-0.7511	25.99	-0.00	-1.500			
0.2486	15911.50	3.8350	3.8350	-0.7636	25.99	-0.00	-1.500			
0.2509	16059.02	3.8320	3.8319	-0.7702	25.99	-0.00	-1.500			
0.2533	16208.20	3.8290	3.8290	-0.7793	25.99	0.00	-1.500			
0.2556	16359.41	3.8260	3.8261	-0.7873	25.99	0.00	-1.500			
0.2580	16512.46	3.8230	3.8229	-0.7941	26.00	0.01	-1.500			
0.2604	16664.04	3.8200	3.8201	-0.7977	26.00	0.01	-1.500			
0.2628	16818.67	3.8170	3.8170	-0.8026	26.00	0.01	-1.500			
0.2652	16973.21	3.8140	3.8141	-0.8070	26.00	0.01	-1.500			
0.2677	17130.69	3.8110	3.8109	-0.8073	26.01	0.02	-1.500			
0.2701	17284.83	3.8080	3.8080	-0.8072	26.01	0.02	-1.500			
0.2725	17439.00	3.8050	3.8050	-0.8105	26.02	0.03	-1.500			
0.2749	17594.79	3.8020	3.8020	-0.8097	26.03	0.04	-1.500			
0.2773	17749.98	3.7990	3.7989	-0.8097	26.03	0.04	-1.500			
0.2798	17905.86	3.7960	3.7961	-0.8139	26.04	0.05	-1.500			
0.2822	18061.93	3.7930	3.7930	-0.8176	26.04	0.05	-1.500			
0.2847	18219.62	3.7900	3.7900	-0.8252	26.05	0.06	-1.500			
0.2872	18378.18	3.7870	3.7870	-0.8263	26.06	0.07	-1.500			
0.2897	18537.76	3.7840	3.7840	-0.8313	26.06	0.07	-1.500			
0.2922	18700.50	3.7810	3.7811	-0.8343	26.07	0.08	-1.500			
0.2947	18860.71	3.7780	3.7779	-0.8309	26.08	0.09	-1.500			
0.2972	19019.70	3.7750	3.7752	-0.8297	26.09	0.10	-1.500			
0.2997	19177.69	3.7720	3.7720	-0.8325	26.09	0.10	-1.500			
0.3021	19337.36	3.7690	3.7690	-0.8297	26.10	0.11	-1.500			
0.3046	19496.40	3.7660	3.7660	-0.8333	26.11	0.12	-1.500			
0.3071	19656.84	3.7630	3.7631	-0.8318	26.12	0.13	-1.500			
0.3097	19818.57	3.7600	3.7600	-0.8369	26.13	0.14	-1.500			
0.3122	19979.07	3.7570	3.7569	-0.8347	26.13	0.14	-1.500			
0.3147	20138.38	3.7540	3.7541	-0.8323	26.14	0.15	-1.500			
0.3172	20298.70	3.7510	3.7509	-0.8318	26.15	0.16	-1.500			
0.3197	20459.95	3.7480	3.7480	-0.8346	26.15	0.16	-1.500			
0.3222	20617.87	3.7450	3.7450	-0.8308	26.16	0.17	-1.500			
0.3247	20778.60	3.7420	3.7421	-0.8348	26.17	0.18	-1.500			
0.3272	20938.22	3.7390	3.7389	-0.8340	26.17	0.18	-1.500			
0.3297	21099.04	3.7360	3.7360	-0.8370	26.18	0.19	-1.500			
0.3322	21260.62	3.7330	3.7330	-0.8365	26.18	0.19	-1.500			
0.3347	21421.47	3.7300	3.7300	-0.8354	26.19	0.20	-1.500			
0.3372	21581.50	3.7270	3.7271	-0.8371	26.20	0.21	-1.500			
0.3397	21742.81	3.7240	3.7241	-0.8348	26.20	0.21	-1.500			
0.3422	21902.90	3.7210	3.7209	-0.8329	26.21	0.22	-1.500			
0.3447	22061.59	3.7180	3.7180	-0.8342	26.21	0.22	-1.500			
0.3472	22221.22	3.7150	3.7151	-0.8365	26.22	0.23	-1.500			
0.3497	22381.49	3.7120	3.7119	-0.8423	26.23	0.24	-1.500			
0.3523	22544.33	3.7090	3.7090	-0.8451	26.23	0.24	-1.500			
0.3548	22705.14	3.7060	3.7061	-0.8559	26.24	0.25	-1.500			
0.3574	22873.12	3.7030	3.7029	-0.8645	26.24	0.25	-1.500			
0.3600	23038.37	3.7000	3.7000	-0.8741	26.25	0.26	-1.500			
0.3626	23206.66	3.6970	3.6969	-0.8748	26.26	0.27	-1.500			
0.3653	23376.19	3.6940	3.6939	-0.8800	26.26	0.27	-1.500			
0.3679	23546.26	3.6910	3.6910	-0.8816	26.26	0.27	-1.500			
0.3706	23715.38	3.6880	3.6880	-0.8893	26.27	0.28	-1.500			
0.3732	23882.78	3.6850	3.6850	-0.8928	26.27	0.28	-1.500			
0.3759	24056.14	3.6820	3.6819	-0.9138	26.27	0.28	-1.500			
0.3786	24230.59	3.6790	3.6790	-0.9216	26.28	0.29	-1.500			
0.3814	24410.03	3.6760	3.6760	-0.9477	26.28	0.29	-1.500			
0.3843	24595.64	3.6730	3.6730	-0.9640	26.28	0.29	-1.500			
0.3872	24782.90	3.6700	3.6700	-0.9812	26.29	0.30	-1.500			
0.3902	24972.13	3.6670	3.6670	-0.9933	26.29	0.30	-1.500			
0.3932	25164.04	3.6640	3.6641	-1.0141	26.29	0.30	-1.500			
0.3962	25358.45	3.6610	3.6610	-1.0324	26.29	0.30	-1.500			
0.3994	25559.01	3.6580	3.6580	-1.0540	26.29	0.30	-1.500			
0.4025	25761.36	3.6550	3.6550	-1.0756	26.30	0.31	-1.500			
0.4058	25973.10	3.6520	3.6520	-1.1015	26.30	0.31	-1.500			
0.4092	26185.91	3.6490	3.6490	-1.1204	26.30	0.31	-1.500			
0.4126	26403.78	3.6460	3.6460	-1.1440	26.30	0.31	-1.500			
0.4160	26624.56	3.6430	3.6430	-1.1634	26.30	0.31	-1.500			
0.4195	26848.68	3.6400	3.6400	-1.1870	26.30	0.31	-1.500			
0.4231	27078.78	3.6370	3.6369	-1.2163	26.29	0.30	-1.500			
0.4268	27313.98	3.6340	3.6340	-1.2464	26.29	0.30	-1.500			
0.4306	27556.90	3.6310	3.6310	-1.2807	26.29	0.30	-1.500			
0.4345	27806.09	3.6280	3.6280	-1.3116	26.28	0.29	-1.500			
0.4385	28061.62	3.6250	3.6250	-1.3412	26.28	0.29	-1.500			
0.4426	28323.27	3.6220	3.6220	-1.3669	26.28	0.29	-1.500			
0.4467	28587.97	3.6190	3.6190	-1.3926	26.27	0.28	-1.500			
0.4509	28856.80	3.6160	3.6160	-1.4250	26.27	0.28	-1.500			
0.4552	29134.43	3.6130	3.6130	-1.4488	26.26	0.27	-1.500			
0.4596	29416.88	3.6100	3.6099	-1.4727	26.26	0.27	-1.500			
0.4641	29700.19	3.6070	3.6072	-1.5093	26.25	0.26	-1.500			
0.4686	29993.24	3.6040	3.6040	-1.5377	26.24	0.25	-1.500			
0.4733	30290.98	3.6010	3.6009	-1.5703	26.24	0.25	-1.500			
0.4780	30593.40	3.5980	3.5980	-1.5972	26.23	0.24	-1.500			
0.4829	30906.31	3.5950	3.5951	-1.6356	26.23	0.24	-1.500			
0.4879	31225.09	3.5920	3.5920	-1.6582	26.22	0.23	-1.500			
0.4929	31547.05	3.5890	3.5890	-1.6834	26.22	0.23	-1.500			
0.4980	31868.99	3.5860	3.5861	-1.7140	26.21	0.22	-1.500			
0.5032	32201.68	3.5830	3.5829	-1.7460	26.21	0.22	-1.500			
0.5084	32538.78	3.5800	3.5799	-1.7735	26.20	0.21	-1.500			
0.5138	32882.46	3.5770	3.5773	-1.8046	26.20	0.21	-1.500			
0.5193	33234.95	3.5740	3.5739	-1.8358	26.20	0.21	-1.500			
0.5248	33589.78	3.5710	3.5710	-1.8546	26.20	0.21	-1.500			
0.5303	33941.29	3.5680	3.5681	-1.8694	26.20	0.21	-1.500			
0.5361	34307.51	3.5650	3.5649	-1.9144	26.20	0.21	-1.500			
0.5418	34677.89	3.5620	3.5620	-1.9346	26.20	0.21	-1.500			
0.5477	35054.72	3.5590	3.5590	-1.9658	26.20	0.21	-1.500			
0.5537	35437.84	3.5560	3.5560	-1.9947	26.20	0.21	-1.500			
0.5597	35822.25	3.5530	3.5529	-1.9982	26.20	0.21	-1.500			
0.5657	36205.73	3.5500	3.5500	-2.0157	26.20	0.21	-1.500			
0.5718	36594.86	3.5470	3.5470	-2.0378	26.21	0.22	-1.500	0.394	0.501	
0.5780	36989.66	3.5440	3.5439	-2.0492	26.21	0.22	-1.500			
0.5841	37383.16	3.5410	3.5410	-2.0558	26.22	0.23	-1.500			
0.5904	37782.88	3.5380	3.5381	-2.0661	26.22	0.23	-1.500			
0.5966	38182.82	3.5350	3.5350	-2.0656	26.23	0.24	-1.500			
0.6028	38580.36	3.5320	3.5320	-2.0581	26.24	0.25	-1.500			
0.6089	38971.36	3.5290	3.5290	-2.0329	26.24	0.25	-1.500			
0.6150	39362.58	3.5260	3.5262	-2.0222	26.25	0.26	-1.500			
0.6211	39749.58	3.5230	3.5230	-2.0106	26.26	0.27	-1.500			
0.6271	40133.30	3.5200	3.5199	-1.9926	26.27	0.28	-1.500			
0.6330	40514.60	3.5170	3.5170	-1.9724	26.28	0.29	-1.500			
0.6390	40894.50	3.5140	3.5143	-1.9607	26.29	0.30	-1.500			
0.6448	41269.75	3.5110	3.5110	-1.9472	26.30	0.31	-1.500			
0.6506	41638.60	3.5080	3.5080	-1.9216	26.30	0.31	-1.500			
0.6563	42001.54	3.5050	3.5050	-1.9006	26.31	0.32	-1.500			
0.6621	42372.02	3.5020	3.5020	-1.9059	26.32	0.33	-1.500			
0.6678	42736.55	3.4990	3.4989	-1.8822	26.33	0.34	-1.500			
0.6734	43098.66	3.4960	3.4960	-1.8702	26.34	0.35	-1.500			
0.6790	43455.99	3.4930	3.4931	-1.8495	26.36	0.37	-1.500			
0.6845	43808.62	3.4900	3.4899	-1.8270	26.37	0.38	-1.500			
0.6900	44157.30	3.4870	3.4871	-1.8108	26.38	0.39	-1.500			
0.6953	44501.87	3.4840	3.4840	-1.7893	26.40	0.41	-1.500			
0.7007	44847.62	3.4810	3.4810	-1.7678	26.41	0.42	-1.500			
0.7060	45184.59	3.4780	3.4780	-1.7420	26.42	0.43	-1.500			
0.7112	45517.69	3.4750	3.4750	-1.7159	26.43	0.44	-1.500			
0.7163	45842.17	3.4720	3.4720	-1.6887	26.45	0.46	-1.500			
0.7213	46161.05	3.4690	3.4690	-1.6677	26.46	0.47	-1.500			
0.7262	46479.00	3.4660	3.4660	-1.6454	26.47	0.48	-1.500			
0.7312	46794.80	3.4630	3.4630	-1.6276	26.48	0.49	-1.500			
0.7360	47106.57	3.4600	3.4600	-1.6075	26.49	0.50	-1.500			
0.7408	47413.82	3.4570	3.4571	-1.5811	26.51	0.52	-1.500			
0.7456	47715.76	3.4540	3.4540	-1.5582	26.52	0.53	-1.500			
0.7502	48011.49	3.4510	3.4510	-1.5266	26.54	0.55	-1.500			
0.7547	48301.02	3.4480	3.4480	-1.4970	26.56	0.57	-1.500			
0.7591	48585.25	3.4450	3.4451	-1.4863	26.57	0.58	-1.500			
0.7635	48866.74	3.4420	3.4420	-1.4756	26.59	0.60	-1.500			
0.7679	49147.69	3.4390	3.4389	-1.4673	26.61	0.62	-1.500			
0.7723	49425.99	3.4360	3.4360	-1.4707	26.63	0.64	-1.500			
0.7767	49708.84	3.4330	3.4331	-1.4716	26.65	0.66	-1.500			
0.7812	49995.55	3.4300	3.4299	-1.4638	26.67	0.68	-1.500			
0.7856	50281.53	3.4270	3.4270	-1.4444	26.69	0.70	-1.500			
0.7900	50557.01	3.4240	3.4241	-1.4133	26.71	0.72	-1.500			
0.7942	50826.66	3.4210	3.4210	-1.3868	26.72	0.73	-1.500			
0.7983	51089.66	3.4180	3.4180	-1.3730	26.74	0.75	-1.500			
0.8023	51346.64	3.4150	3.4149	-1.3495	26.76	0.77	-1.500			
0.8063	51605.88	3.4120	3.4119	-1.3333	26.78	0.79	-1.500			
0.8103	51861.46	3.4090	3.4092	-1.3122	26.80	0.81	-1.500			
0.8143	52117.77	3.4060	3.4061	-1.2838	26.81	0.82	-1.500			
0.8181	52361.20	3.4030	3.4030	-1.2394	26.83	0.84	-1.500			
0.8218	52594.56	3.4000	3.4000	-1.1924	26.85	0.86	-1.500			
0.8253	52819.45	3.3970	3.3970	-1.1464	26.87	0.88	-1.500			
0.8287	53034.45	3.3940	3.3939	-1.1017	26.89	0.90	-1.500			
0.8319	53240.05	3.3910	3.3910	-1.0502	26.90	0.91	-1.500			
0.8350	53437.24	3.3880	3.3880	-1.0048	26.92	0.93	-1.500			
0.8379	53626.03	3.3850	3.3850	-0.9620	26.94	0.95	-1.500			
0.8407	53805.53	3.3820	3.3820	-0.9199	26.95	0.96	-1.500			
0.8434	53976.53	3.3790	3.3790	-0.8832	26.96	0.97	-1.500			
0.8460	54141.79	3.3760	3.3759	-0.8523	26.98	0.99	-1.500			
0.8485	54300.95	3.3730	3.3730	-0.8194	26.99	1.00	-1.500			
0.8509	54456.13	3.3700	3.3699	-0.7951	27.00	1.01	-1.500			
0.8532	54605.82	3.3670	3.3671	-0.7700	27.01	1.02	-1.500			
0.8555	54752.19	3.3640	3.3640	-0.7443	27.02	1.03	-1.500			
0.8577	54892.84	3.3610	3.3609	-0.7187	27.03	1.04	-1.500			
0.8598	55027.56	3.3580	3.3580	-0.6907	27.04	1.05	-1.500			
0.8619	55158.73	3.3550	3.3550	-0.6642	27.05	1.06	-1.500			
0.8638	55283.27	3.3520	3.3521	-0.6401	27.06	1.07	-1.500			
0.8657	55402.31	3.3490	3.3490	-0.6149	27.07	1.08	-1.500			
0.8674	55516.73	3.3460	3.3461	-0.5960	27.08	1.09	-1.500			
0.8692	55629.12	3.3430	3.3429	-0.5764	27.09	1.10	-1.500			
0.8709	55737.70	3.3400	3.3401	-0.5610	27.10	1.11	-1.500			
0.8726	55843.77	3.3370	3.3370	-0.5480	27.10	1.11	-1.500			
0.8742	55949.11	3.3340	3.3341	-0.5359	27.11	1.12	-1.500			
0.8758	56050.78	3.3310	3.3309	-0.5176	27.12	1.13	-1.500			
0.8773	56148.41	3.3280	3.3281	-0.4999	27.13	1.14	-1.500			
0.8788	56243.01	3.3250	3.3250	-0.4825	27.13	1.14	-1.500			
0.8802	56333.37	3.3220	3.3221	-0.4646	27.14	1.15	-1.500			
0.8816	56420.55	3.3190	3.3189	-0.4481	27.15	1.16	-1.500			
0.8829	56504.46	3.3160	3.3161	-0.4320	27.16	1.17	-1.500			
0.8842	56585.79	3.3130	3.3130	-0.4180	27.16	1.17	-1.500			
0.8854	56664.63	3.3100	3.3100	-0.4043	27.17	1.18	-1.500			
0.8866	56741.36	3.3070	3.3070	-0.3916	27.18	1.19	-1.500			
0.8877	56815.58	3.3040	3.3039	-0.3770	27.18	1.19	-1.500			
0.8888	56886.29	3.3010	3.3011	-0.3646	27.19	1.20	-1.500			
0.8899	56955.10	3.2980	3.2981	-0.3522	27.20	1.21	-1.500			
0.8910	57021.45	3.2950	3.2949	-0.3409	27.20	1.21	-1.500			
0.8920	57085.37	3.2920	3.2919	-0.3302	27.21	1.22	-1.500			
0.8929	57147.18	3.2890	3.2891	-0.3200	27.22	1.23	-1.500			
0.8939	57207.51	3.2860	3.2860	-0.3111	27.22	1.23	-1.500			
0.8948	57267.50	3.2830	3.2829	-0.3031	27.23	1.24	-1.500			
0.8957	57324.28	3.2800	3.2801	-0.2921	27.23	1.24	-1.500			
0.8966	57379.61	3.2770	3.2770	-0.2832	27.24	1.25	-1.500			
0.8974	57433.06	3.2740	3.2740	-0.2726	27.24	1.25	-1.500			
0.8982	57483.77	3.2710	3.2710	-0.2627	27.25	1.26	-1.500			
0.8990	57533.19	3.2680	3.2680	-0.2544	27.25	1.26	-1.500			
0.8997	57581.05	3.2650	3.2651	-0.2463	27.26	1.27	-1.500			
0.9004	57627.70	3.2620	3.2619	-0.2393	27.26	1.27	-1.500			
0.9011	57672.80	3.2590	3.2591	-0.2320	27.27	1.28	-1.500			
0.9018	57716.64	3.2560	3.2561	-0.2259	27.27	1.28	-1.500			
0.9025	57759.37	3.2530	3.2530	-0.2196	27.28	1.29	-1.500			
0.9031	57800.87	3.2500	3.2500	-0.2148	27.28	1.29	-1.500			
0.9038	57841.17	3.2470	3.2470	-0.2077	27.28	1.29	-1.500			
0.9044	57880.74	3.2440	3.2440	-0.2031	27.29	1.30	-1.500			
0.9050	57919.28	3.2410	3.2410	-0.1976	27.29	1.30	-1.500			
0.9056	57956.87	3.2380	3.2381	-0.1921	27.30	1.31	-1.500			
0.9061	57992.96	3.2350	3.2349	-0.1873	27.30	1.31	-1.500			
0.9067	58028.24	3.2320	3.2321	-0.1818	27.31	1.32	-1.500			
0.9072	58062.56	3.2290	3.2289	-0.1780	27.31	1.32	-1.500			
0.9077	58095.94	3.2260	3.2259	-0.1733	27.31	1.32	-1.500			
0.9083	58128.80	3.2230	3.2230	-0.1705	27.32	1.33	-1.500			
0.9088	58161.24	3.2200	3.2200	-0.1674	27.32	1.33	-1.500			
0.9093	58193.07	3.2170	3.2171	-0.1640	27.33	1.34	-1.500			
0.9098	58224.39	3.2140	3.2139	-0.1610	27.33	1.34	-1.500			
0.9102	58254.89	3.2110	3.2110	-0.1573	27.33	1.34	-1.500			
0.9107	58284.79	3.2080	3.2081	-0.1541	27.34	1.35	-1.500			
0.9112	58314.12	3.2050	3.2050	-0.1509	27.34	1.35	-1.500			
0.9116	58342.80	3.2020	3.2020	-0.1481	27.34	1.35	-1.500			
0.9120	58370.54	3.1990	3.1991	-0.1447	27.35	1.36	-1.500			
0.9125	58398.11	3.1960	3.1960	-0.1425	27.35	1.36	-1.500			
0.9129	58425.19	3.1930	3.1930	-0.1403	27.35	1.36	-1.500			
0.9133	58451.99	3.1900	3.1901	-0.1375	27.36	1.37	-1.500			
0.9137	58478.34	3.1870	3.1869	-0.1352	27.36	1.37	-1.500			
0.9141	58504.02	3.1840	3.1842	-0.1323	27.36	1.37	-1.500			
0.9145	58528.97	3.1810	3.1811	-0.1306	27.37	1.38	-1.500			
0.9149	58553.67	3.1780	3.1780	-0.1282	27.37	1.38	-1.500			
0.9153	58577.82	3.1750	3.1750	-0.1260	27.37	1.38	-1.500			
0.9157	58601.89	3.1720	3.1718	-0.1247	27.38	1.39	-1.500			
0.9160	58625.52	3.1690	3.1691	-0.1232	27.38	1.39	-1.500			
0.9164	58649.23	3.1660	3.1660	-0.1225	27.38	1.39	-1.500			
0.9168	58672.72	3.1630	3.1630	-0.1209	27.39	1.40	-1.500			
0.9171	58696.00	3.1600	3.1599	-0.1197	27.39	1.40	-1.500			
0.9175	58718.82	3.1570	3.1570	-0.1178	27.40	1.41	-1.500			
0.9178	58741.21	3.1540	3.1540	-0.1160	27.40	1.41	-1.500			
0.9182	58763.20	3.1510	3.1511	-0.1147	27.40	1.41	-1.500			
0.9185	58785.10	3.1480	3.1481	-0.1133	27.41	1.42	-1.500			
0.9189	58806.75	3.1450	3.1448	-0.1118	27.41	1.42	-1.500			
0.9192	58827.94	3.1420	3.1421	-0.1102	27.41	1.42	-1.500			
0.9195	58848.96	3.1390	3.1390	-0.1090	27.41	1.42	-1.500			
0.9198	58869.77	3.1360	3.1361	-0.1078	27.42	1.43	-1.500			
0.9202	58890.38	3.1330	3.1330	-0.1064	27.42	1.43	-1.500			
0.9205	58910.78	3.1300	3.1299	-0.1052	27.42	1.43	-1.500			
0.9208	58930.71	3.1270	3.1270	-0.1042	27.43	1.44	-1.500			
0.9211	58950.40	3.1240	3.1241	-0.1029	27.43	1.44	-1.500			
0.9214	58970.10	3.1210	3.1210	-0.1020	27.43	1.44	-1.500			
0.9217	58989.63	3.1180	3.1179	-0.1012	27.44	1.45	-1.500			
0.9220	59008.84	3.1150	3.1150	-0.1007	27.44	1.45	-1.500			
0.9223	59027.94	3.1120	3.1122	-0.0999	27.44	1.45	-1.500			
0.9226	59047.25	3.1090	3.1089	-0.0990	27.44	1.45	-1.500			
0.9229	59066.34	3.1060	3.1059	-0.0985	27.45	1.46	-1.500			
0.9232	59085.16	3.1030	3.1030	-0.0976	27.45	1.46	-1.500			
0.9235	59103.82	3.1000	3.1001	-0.0967	27.45	1.46	-1.500			
0.9238	59122.33	3.0970	3.0970	-0.0958	27.46	1.47	-1.500			
0.9241	59140.75	3.0940	3.0939	-0.0949	27.46	1.47	-1.500			
0.9244	59158.75	3.0910	3.0911	-0.0943	27.46	1.47	-1.500			
0.9246	59176.50	3.0880	3.0880	-0.0932	27.46	1.47	-1.500			
0.9249	59194.44	3.0850	3.0850	-0.0924	27.47	1.48	-1.500			
0.9252	59212.24	3.0820	3.0818	-0.0919	27.47	1.48	-1.500			
0.9255	59229.74	3.0790	3.0790	-0.0913	27.47	1.48	-1.500			
0.9257	59247.14	3.0760	3.0762	-0.0905	27.47	1.48	-1.500			
0.9260	59264.49	3.0730	3.0730	-0.0898	27.48	1.49	-1.500			
0.9263	59281.74	3.0700	3.0700	-0.0892	27.48	1.49	-1.500			
0.9265	59298.74	3.0670	3.0671	-0.0888	27.48	1.49	-1.500			
0.9268	59315.58	3.0640	3.0640	-0.0881	27.48	1.49	-1.500			
0.9271	59332.50	3.0610	3.0611	-0.0875	27.49	1.50	-1.500			
0.9273	59349.34	3.0580	3.0579	-0.0872	27.49	1.50	-1.500			
0.9276	59366.00	3.0550	3.0550	-0.0866	27.49	1.50	-1.500			
0.9279	59382.53	3.0520	3.0520	-0.0860	27.49	1.50	-1.500			
0.9281	59399.00	3.0490	3.0491	-0.0856	27.50	1.51	-1.500			
0.9284	59415.48	3.0460	3.0461	-0.0851	27.50	1.51	-1.500			
0.9286	59431.75	3.0430	3.0429	-0.0844	27.50	1.51	-1.500			
0.9289	59447.87	3.0400	3.0400	-0.0838	27.50	1.51	-1.500			
0.9291	59463.89	3.0370	3.0370	-0.0832	27.51	1.52	-1.500			
0.9294	59479.67	3.0340	3.0340	-0.0829	27.51	1.52	-1.500			
0.9296	59495.56	3.0310	3.0311	-0.0826	27.51	1.52	-1.500			
0.9299	59511.22	3.0280	3.0279	-0.0821	27.51	1.52	-1.500			
0.9301	59527.06	3.0250	3.0249	-0.0819	27.52	1.53	-1.500			
0.9304	59542.78	3.0220	3.0221	-0.0818	27.52	1.53	-1.500			
0.9306	59558.56	3.0190	3.0191	-0.0815	27.52	1.53	-1.500			
0.9308	59574.17	3.0160	3.0159	-0.0811	27.52	1.53	-1.500			
0.9311	59589.92	3.0130	3.0129	-0.0809	27.53	1.54	-1.500			
0.9313	59605.38	3.0100	3.0101	-0.0802	27.53	1.54	-1.500			
0.9316	59620.71	3.0070	3.0070	-0.0795	27.53	1.54	-1.500			
0.9318	59635.91	3.0040	3.0040	-0.0788	27.53	1.54	-1.499			
