Ah_balance (normalized)	Ah_balance (mAh)	Voltage - fit (V)	Voltage -  interpolate (V)	dQ/dV (1/V)	Temperature (°C)	Temperature - diff (°C)	Current (C)	R_DC 0ms (mOhm)	R_DC 50ms (mOhm)	R_DC 50 ms PEC (mOhm)
0.1849	11830.75	3.9280	3.9278	-0.1052	25.76	-0.00	-1.500			
0.1852	11854.05	3.9250	3.9250	-0.1339	25.76	-0.00	-1.500			
0.1857	11882.69	3.9220	3.9219	-0.1606	25.76	-0.00	-1.500			
0.1862	11916.14	3.9190	3.9190	-0.1863	25.76	-0.00	-1.500			
0.1868	11954.39	3.9160	3.9161	-0.2115	25.76	-0.00	-1.500			
0.1875	11997.97	3.9130	3.9130	-0.2362	25.76	-0.00	-1.500			
0.1882	12046.50	3.9100	3.9099	-0.2592	25.76	-0.00	-1.500			
0.1890	12098.36	3.9070	3.9070	-0.2813	25.76	-0.00	-1.500			
0.1899	12154.29	3.9040	3.9041	-0.3042	25.76	-0.00	-1.500			
0.1909	12214.84	3.9010	3.9011	-0.3272	25.76	-0.00	-1.500			
0.1919	12279.69	3.8980	3.8979	-0.3495	25.76	-0.00	-1.500			
0.1930	12349.10	3.8950	3.8950	-0.3717	25.76	-0.00	-1.500			
0.1941	12423.09	3.8920	3.8920	-0.3934	25.76	-0.00	-1.500			
0.1953	12500.78	3.8890	3.8890	-0.4152	25.76	-0.00	-1.500			
0.1966	12582.92	3.8860	3.8860	-0.4364	25.76	-0.00	-1.500			
0.1979	12668.36	3.8830	3.8830	-0.4537	25.75	-0.01	-1.500			
0.1993	12757.79	3.8800	3.8800	-0.4708	25.75	-0.01	-1.500			
0.2008	12849.98	3.8770	3.8771	-0.4890	25.75	-0.01	-1.500			
0.2023	12945.76	3.8740	3.8739	-0.5043	25.75	-0.01	-1.500			
0.2038	13044.67	3.8710	3.8710	-0.5203	25.75	-0.01	-1.500			
0.2054	13145.71	3.8680	3.8680	-0.5336	25.75	-0.01	-1.500			
0.2070	13249.81	3.8650	3.8650	-0.5485	25.75	-0.01	-1.500			
0.2087	13357.14	3.8620	3.8621	-0.5611	25.75	-0.01	-1.500			
0.2104	13466.98	3.8590	3.8589	-0.5684	25.75	-0.01	-1.500			
0.2121	13576.90	3.8560	3.8560	-0.5736	25.75	-0.01	-1.500			
0.2139	13688.24	3.8530	3.8531	-0.5825	25.75	-0.01	-1.500			
0.2156	13799.79	3.8500	3.8500	-0.5907	25.76	-0.00	-1.500			
0.2174	13913.92	3.8470	3.8469	-0.5979	25.76	-0.00	-1.500			
0.2192	14029.79	3.8440	3.8441	-0.6009	25.76	0.00	-1.500			
0.2210	14146.47	3.8410	3.8410	-0.6089	25.76	0.00	-1.500			
0.2229	14264.47	3.8380	3.8381	-0.6144	25.77	0.01	-1.500			
0.2247	14383.06	3.8350	3.8349	-0.6164	25.77	0.01	-1.500			
0.2266	14500.67	3.8320	3.8320	-0.6193	25.77	0.01	-1.500			
0.2284	14619.69	3.8290	3.8290	-0.6231	25.77	0.01	-1.500			
0.2303	14740.68	3.8260	3.8259	-0.6278	25.77	0.01	-1.500			
0.2322	14863.27	3.8230	3.8229	-0.6312	25.78	0.02	-1.500			
0.2341	14983.39	3.8200	3.8201	-0.6308	25.78	0.02	-1.500			
0.2360	15104.78	3.8170	3.8170	-0.6346	25.78	0.02	-1.500			
0.2379	15227.34	3.8140	3.8139	-0.6353	25.79	0.03	-1.500			
0.2398	15348.26	3.8110	3.8109	-0.6353	25.79	0.03	-1.500			
0.2417	15470.42	3.8080	3.8081	-0.6372	25.80	0.04	-1.500			
0.2437	15593.73	3.8050	3.8050	-0.6409	25.80	0.04	-1.500			
0.2456	15716.87	3.8020	3.8020	-0.6429	25.81	0.05	-1.500			
0.2475	15840.49	3.7990	3.7989	-0.6428	25.81	0.05	-1.500			
0.2494	15963.03	3.7960	3.7960	-0.6454	25.82	0.06	-1.500			
0.2514	16087.85	3.7930	3.7930	-0.6489	25.82	0.06	-1.500			
0.2533	16212.90	3.7900	3.7900	-0.6517	25.82	0.06	-1.500			
0.2553	16338.29	3.7870	3.7870	-0.6551	25.83	0.07	-1.500			
0.2573	16464.89	3.7840	3.7840	-0.6539	25.83	0.07	-1.500			
0.2592	16590.72	3.7810	3.7811	-0.6548	25.84	0.08	-1.500			
0.2612	16716.26	3.7780	3.7780	-0.6576	25.84	0.08	-1.500			
0.2632	16841.73	3.7750	3.7750	-0.6586	25.85	0.09	-1.500			
0.2651	16968.00	3.7720	3.7719	-0.6598	25.85	0.09	-1.500			
0.2671	17094.71	3.7690	3.7690	-0.6612	25.85	0.09	-1.500			
0.2691	17222.07	3.7660	3.7661	-0.6668	25.86	0.10	-1.500			
0.2711	17351.18	3.7630	3.7630	-0.6728	25.86	0.10	-1.500			
0.2731	17480.78	3.7600	3.7600	-0.6747	25.87	0.11	-1.500			
0.2752	17610.39	3.7570	3.7570	-0.6787	25.87	0.11	-1.500			
0.2772	17740.69	3.7540	3.7540	-0.6844	25.87	0.11	-1.500			
0.2793	17873.09	3.7510	3.7510	-0.6897	25.88	0.12	-1.500			
0.2814	18006.87	3.7480	3.7479	-0.6914	25.88	0.12	-1.500			
0.2834	18138.90	3.7450	3.7450	-0.6928	25.89	0.13	-1.500			
0.2855	18273.16	3.7420	3.7420	-0.6950	25.89	0.13	-1.500			
0.2876	18406.55	3.7390	3.7391	-0.6975	25.90	0.14	-1.500			
0.2897	18539.48	3.7360	3.7360	-0.7015	25.90	0.14	-1.500			
0.2918	18673.47	3.7330	3.7331	-0.7084	25.90	0.14	-1.500			
0.2939	18810.52	3.7300	3.7300	-0.7179	25.91	0.15	-1.500			
0.2961	18950.36	3.7270	3.7270	-0.7275	25.91	0.15	-1.500			
0.2983	19090.36	3.7240	3.7240	-0.7325	25.92	0.16	-1.500			
0.3005	19231.71	3.7210	3.7210	-0.7420	25.92	0.16	-1.500			
0.3027	19375.21	3.7180	3.7180	-0.7487	25.93	0.17	-1.500			
0.3050	19519.59	3.7150	3.7149	-0.7556	25.93	0.17	-1.500			
0.3073	19665.30	3.7120	3.7120	-0.7626	25.93	0.17	-1.500			
0.3096	19813.35	3.7090	3.7089	-0.7672	25.94	0.18	-1.500			
0.3119	19961.63	3.7060	3.7060	-0.7755	25.94	0.18	-1.500			
0.3142	20110.95	3.7030	3.7030	-0.7796	25.95	0.19	-1.500			
0.3166	20259.90	3.7000	3.7000	-0.7833	25.95	0.19	-1.500			
0.3189	20410.55	3.6970	3.6971	-0.7934	25.95	0.19	-1.500			
0.3213	20563.02	3.6940	3.6940	-0.8021	25.96	0.20	-1.500			
0.3237	20717.66	3.6910	3.6909	-0.8131	25.96	0.20	-1.500			
0.3262	20875.58	3.6880	3.6880	-0.8228	25.97	0.21	-1.500			
0.3286	21033.50	3.6850	3.6850	-0.8317	25.97	0.21	-1.500			
0.3312	21195.27	3.6820	3.6820	-0.8438	25.97	0.21	-1.500			
0.3337	21357.98	3.6790	3.6789	-0.8552	25.98	0.22	-1.500			
0.3363	21521.78	3.6760	3.6760	-0.8653	25.98	0.22	-1.500			
0.3389	21690.03	3.6730	3.6730	-0.8750	25.99	0.23	-1.500			
0.3416	21859.39	3.6700	3.6700	-0.8850	25.99	0.23	-1.500			
0.3442	22030.76	3.6670	3.6670	-0.8922	26.00	0.24	-1.500			
0.3469	22202.64	3.6640	3.6640	-0.9012	26.00	0.24	-1.500			
0.3496	22375.27	3.6610	3.6610	-0.9122	26.00	0.24	-1.500			
0.3524	22550.84	3.6580	3.6579	-0.9221	26.01	0.25	-1.500			
0.3551	22728.26	3.6550	3.6550	-0.9344	26.01	0.25	-1.500			
0.3580	22910.00	3.6520	3.6520	-0.9466	26.02	0.26	-1.500			
0.3608	23093.21	3.6490	3.6489	-0.9580	26.02	0.26	-1.500			
0.3637	23278.22	3.6460	3.6461	-0.9707	26.02	0.26	-1.500			
0.3666	23464.28	3.6430	3.6430	-0.9822	26.03	0.27	-1.500			
0.3696	23655.11	3.6400	3.6400	-0.9944	26.03	0.27	-1.500			
0.3726	23847.38	3.6370	3.6370	-1.0081	26.03	0.27	-1.500			
0.3757	24041.71	3.6340	3.6340	-1.0179	26.03	0.27	-1.500			
0.3787	24238.28	3.6310	3.6311	-1.0316	26.04	0.28	-1.500			
0.3818	24437.11	3.6280	3.6279	-1.0434	26.04	0.28	-1.500			
0.3850	24638.17	3.6250	3.6250	-1.0554	26.04	0.28	-1.500			
0.3881	24841.22	3.6220	3.6220	-1.0689	26.05	0.29	-1.500			
0.3914	25048.76	3.6190	3.6190	-1.0853	26.05	0.29	-1.500			
0.3947	25258.40	3.6160	3.6160	-1.1005	26.06	0.30	-1.500			
0.3980	25471.22	3.6130	3.6130	-1.1177	26.06	0.30	-1.500			
0.4014	25687.66	3.6100	3.6100	-1.1290	26.07	0.31	-1.500			
0.4048	25906.05	3.6070	3.6070	-1.1437	26.07	0.31	-1.500			
0.4082	26127.20	3.6040	3.6040	-1.1529	26.08	0.32	-1.500			
0.4117	26351.23	3.6010	3.6009	-1.1551	26.08	0.32	-1.500			
0.4152	26571.67	3.5980	3.5981	-1.1699	26.08	0.32	-1.500			
0.4187	26794.78	3.5950	3.5950	-1.1828	26.09	0.33	-1.500			
0.4222	27021.57	3.5920	3.5920	-1.2051	26.09	0.33	-1.500			
0.4259	27256.65	3.5890	3.5890	-1.2328	26.09	0.33	-1.500			
0.4296	27496.45	3.5860	3.5860	-1.2488	26.10	0.34	-1.500			
0.4334	27740.11	3.5830	3.5830	-1.2701	26.10	0.34	-1.500			
0.4373	27987.94	3.5800	3.5800	-1.2921	26.10	0.34	-1.500			
0.4412	28234.36	3.5770	3.5769	-1.3012	26.11	0.35	-1.500			
0.4451	28484.53	3.5740	3.5740	-1.3164	26.11	0.35	-1.500			
0.4490	28738.36	3.5710	3.5710	-1.3317	26.12	0.36	-1.500			
0.4531	28997.88	3.5680	3.5680	-1.3544	26.12	0.36	-1.500			
0.4572	29259.62	3.5650	3.5650	-1.3753	26.13	0.37	-1.500			
0.4613	29523.48	3.5620	3.5621	-1.3931	26.13	0.37	-1.500			
0.4655	29793.21	3.5590	3.5589	-1.4120	26.14	0.38	-1.500			
0.4698	30065.76	3.5560	3.5559	-1.4376	26.15	0.39	-1.500			
0.4741	30343.40	3.5530	3.5531	-1.4600	26.16	0.40	-1.500			
0.4786	30629.49	3.5500	3.5500	-1.4754	26.17	0.41	-1.500			
0.4831	30915.78	3.5470	3.5469	-1.4953	26.18	0.42	-1.500			
0.4876	31203.40	3.5440	3.5440	-1.5130	26.18	0.42	-1.500			
0.4921	31492.05	3.5410	3.5410	-1.5313	26.19	0.43	-1.500			
0.4967	31788.70	3.5380	3.5379	-1.5507	26.20	0.44	-1.500			
0.5014	32088.80	3.5350	3.5350	-1.5663	26.21	0.45	-1.500			
0.5062	32395.93	3.5320	3.5319	-1.5895	26.21	0.45	-1.500			
0.5110	32703.50	3.5290	3.5291	-1.6068	26.22	0.46	-1.500			
0.5158	33011.90	3.5260	3.5260	-1.6137	26.23	0.47	-1.500	0.371	0.536	
0.5207	33322.00	3.5230	3.5230	-1.6258	26.24	0.48	-1.500			
0.5256	33636.21	3.5200	3.5200	-1.6371	26.25	0.49	-1.500			
0.5305	33949.45	3.5170	3.5170	-1.6462	26.25	0.49	-1.500			
0.5355	34270.59	3.5140	3.5140	-1.6666	26.26	0.50	-1.500			
0.5405	34591.32	3.5110	3.5110	-1.6742	26.27	0.51	-1.500			
0.5455	34913.19	3.5080	3.5080	-1.6850	26.28	0.52	-1.500			
0.5506	35238.92	3.5050	3.5050	-1.6908	26.29	0.53	-1.500			
0.5557	35564.99	3.5020	3.5020	-1.6932	26.30	0.54	-1.500			
0.5608	35891.54	3.4990	3.4990	-1.6894	26.31	0.55	-1.500			
0.5659	36214.95	3.4960	3.4960	-1.6905	26.32	0.56	-1.500			
0.5709	36539.84	3.4930	3.4930	-1.6875	26.34	0.58	-1.500			
0.5760	36863.24	3.4900	3.4899	-1.6869	26.35	0.59	-1.500			
0.5811	37188.49	3.4870	3.4870	-1.6854	26.36	0.60	-1.500			
0.5861	37513.21	3.4840	3.4840	-1.6789	26.37	0.61	-1.500			
0.5912	37835.86	3.4810	3.4811	-1.6715	26.39	0.63	-1.500			
0.5962	38156.33	3.4780	3.4780	-1.6631	26.40	0.64	-1.500			
0.6012	38473.83	3.4750	3.4750	-1.6453	26.42	0.66	-1.500			
0.6061	38789.14	3.4720	3.4720	-1.6379	26.43	0.67	-1.500			
0.6110	39101.51	3.4690	3.4691	-1.6108	26.44	0.68	-1.500			
0.6158	39411.55	3.4660	3.4659	-1.5965	26.46	0.70	-1.500			
0.6206	39715.83	3.4630	3.4630	-1.5801	26.47	0.71	-1.500			
0.6253	40016.12	3.4600	3.4599	-1.5561	26.49	0.73	-1.500			
0.6299	40314.57	3.4570	3.4570	-1.5388	26.50	0.74	-1.500			
0.6345	40607.94	3.4540	3.4541	-1.5190	26.52	0.76	-1.500			
0.6390	40895.65	3.4510	3.4510	-1.5000	26.54	0.78	-1.500			
0.6435	41184.25	3.4480	3.4480	-1.4852	26.55	0.79	-1.500			
0.6479	41466.45	3.4450	3.4450	-1.4617	26.57	0.81	-1.500			
0.6523	41745.83	3.4420	3.4420	-1.4394	26.59	0.83	-1.500			
0.6566	42022.27	3.4390	3.4390	-1.4247	26.61	0.85	-1.500			
0.6608	42293.17	3.4360	3.4360	-1.4016	26.62	0.86	-1.500			
0.6650	42558.45	3.4330	3.4330	-1.3841	26.64	0.88	-1.500			
0.6691	42821.65	3.4300	3.4300	-1.3680	26.65	0.89	-1.500			
0.6732	43083.56	3.4270	3.4270	-1.3515	26.67	0.91	-1.500			
0.6772	43343.82	3.4240	3.4240	-1.3386	26.68	0.92	-1.500			
0.6812	43598.36	3.4210	3.4210	-1.3158	26.70	0.94	-1.500			
0.6852	43850.00	3.4180	3.4181	-1.2882	26.71	0.95	-1.500			
0.6890	44095.61	3.4150	3.4149	-1.2650	26.73	0.97	-1.500			
0.6927	44332.81	3.4120	3.4121	-1.2406	26.75	0.99	-1.500			
0.6964	44569.67	3.4090	3.4090	-1.2190	26.76	1.00	-1.500			
0.7001	44804.09	3.4060	3.4059	-1.1976	26.78	1.02	-1.500			
0.7036	45030.85	3.4030	3.4030	-1.1602	26.80	1.04	-1.500			
0.7071	45251.25	3.4000	3.4003	-1.1304	26.81	1.05	-1.500			
0.7104	45466.33	3.3970	3.3970	-1.0961	26.82	1.06	-1.500			
0.7136	45672.09	3.3940	3.3939	-1.0562	26.84	1.08	-1.500			
0.7167	45870.42	3.3910	3.3910	-1.0253	26.85	1.09	-1.500			
0.7197	46062.84	3.3880	3.3880	-0.9983	26.87	1.11	-1.500			
0.7227	46252.89	3.3850	3.3849	-0.9683	26.88	1.12	-1.500			
0.7256	46436.75	3.3820	3.3821	-0.9393	26.90	1.14	-1.500			
0.7283	46612.49	3.3790	3.3789	-0.9114	26.91	1.15	-1.500			
0.7310	46785.88	3.3760	3.3761	-0.8821	26.93	1.17	-1.500			
0.7336	46952.23	3.3730	3.3729	-0.8534	26.94	1.18	-1.500			
0.7361	47111.27	3.3700	3.3700	-0.8281	26.95	1.19	-1.500			
0.7386	47267.74	3.3670	3.3671	-0.8051	26.96	1.20	-1.500			
0.7410	47421.24	3.3640	3.3639	-0.7847	26.97	1.21	-1.500			
0.7433	47570.57	3.3610	3.3609	-0.7581	26.98	1.22	-1.500			
0.7455	47713.14	3.3580	3.3581	-0.7353	26.99	1.23	-1.500			
0.7477	47853.10	3.3550	3.3550	-0.7160	27.00	1.24	-1.500			
0.7498	47987.42	3.3520	3.3519	-0.6912	27.00	1.24	-1.500			
0.7518	48115.52	3.3490	3.3490	-0.6695	27.01	1.25	-1.500			
0.7538	48242.68	3.3460	3.3461	-0.6536	27.02	1.26	-1.500			
0.7557	48367.69	3.3430	3.3430	-0.6369	27.03	1.27	-1.500			
0.7576	48488.50	3.3400	3.3400	-0.6219	27.04	1.28	-1.500			
0.7595	48605.22	3.3370	3.3371	-0.6034	27.04	1.28	-1.500			
0.7613	48720.53	3.3340	3.3339	-0.5866	27.05	1.29	-1.500			
0.7630	48831.75	3.3310	3.3310	-0.5703	27.06	1.30	-1.500			
0.7647	48938.78	3.3280	3.3280	-0.5543	27.07	1.31	-1.500			
0.7663	49043.07	3.3250	3.3251	-0.5420	27.08	1.32	-1.500			
0.7679	49145.94	3.3220	3.3219	-0.5283	27.08	1.32	-1.500			
0.7695	49245.44	3.3190	3.3190	-0.5140	27.09	1.33	-1.500			
0.7710	49343.52	3.3160	3.3160	-0.5011	27.10	1.34	-1.500			
0.7725	49438.82	3.3130	3.3129	-0.4883	27.11	1.35	-1.500			
0.7739	49531.16	3.3100	3.3100	-0.4757	27.12	1.36	-1.500			
0.7753	49620.74	3.3070	3.3070	-0.4644	27.12	1.36	-1.500			
0.7767	49708.12	3.3040	3.3040	-0.4529	27.13	1.37	-1.500			
0.7780	49794.87	3.3010	3.3010	-0.4440	27.14	1.38	-1.500			
0.7794	49879.28	3.2980	3.2980	-0.4334	27.15	1.39	-1.500			
0.7807	49961.73	3.2950	3.2950	-0.4224	27.15	1.39	-1.500			
0.7819	50041.75	3.2920	3.2920	-0.4122	27.16	1.40	-1.500			
0.7831	50119.62	3.2890	3.2891	-0.4010	27.16	1.40	-1.500			
0.7843	50195.36	3.2860	3.2859	-0.3897	27.17	1.41	-1.500			
0.7855	50269.00	3.2830	3.2831	-0.3814	27.17	1.41	-1.500			
0.7866	50341.31	3.2800	3.2800	-0.3720	27.18	1.42	-1.500			
0.7877	50411.73	3.2770	3.2770	-0.3633	27.19	1.43	-1.500			
0.7888	50480.50	3.2740	3.2740	-0.3565	27.20	1.44	-1.500			
0.7898	50547.76	3.2710	3.2710	-0.3509	27.20	1.44	-1.500			
0.7909	50615.01	3.2680	3.2679	-0.3441	27.21	1.45	-1.500			
0.7919	50680.94	3.2650	3.2650	-0.3356	27.22	1.46	-1.500			
0.7929	50744.61	3.2620	3.2620	-0.3284	27.22	1.46	-1.500			
0.7939	50807.34	3.2590	3.2591	-0.3212	27.23	1.47	-1.500			
0.7948	50867.75	3.2560	3.2559	-0.3136	27.24	1.48	-1.500			
0.7957	50926.77	3.2530	3.2530	-0.3061	27.24	1.48	-1.500			
0.7966	50984.57	3.2500	3.2500	-0.2990	27.25	1.49	-1.500			
0.7975	51041.76	3.2470	3.2470	-0.2945	27.25	1.49	-1.500			
0.7984	51097.98	3.2440	3.2440	-0.2903	27.26	1.50	-1.500			
0.7993	51152.60	3.2410	3.2410	-0.2846	27.26	1.50	-1.500			
0.8001	51206.79	3.2380	3.2380	-0.2800	27.27	1.51	-1.500			
0.8009	51260.17	3.2350	3.2350	-0.2750	27.27	1.51	-1.500			
0.8018	51312.69	3.2320	3.2320	-0.2708	27.28	1.52	-1.500			
0.8026	51364.33	3.2290	3.2290	-0.2660	27.28	1.52	-1.500			
0.8034	51414.83	3.2260	3.2259	-0.2610	27.29	1.53	-1.500			
0.8041	51464.48	3.2230	3.2230	-0.2556	27.29	1.53	-1.500			
0.8049	51512.56	3.2200	3.2201	-0.2515	27.30	1.54	-1.500			
0.8056	51560.60	3.2170	3.2170	-0.2478	27.30	1.54	-1.500			
0.8064	51607.56	3.2140	3.2140	-0.2444	27.31	1.55	-1.500			
0.8071	51653.90	3.2110	3.2110	-0.2407	27.31	1.55	-1.500			
0.8078	51699.81	3.2080	3.2081	-0.2375	27.32	1.56	-1.500			
0.8085	51745.10	3.2050	3.2050	-0.2350	27.32	1.56	-1.500			
0.8092	51790.16	3.2020	3.2019	-0.2318	27.33	1.57	-1.500			
0.8099	51834.61	3.1990	3.1991	-0.2287	27.33	1.57	-1.500			
0.8106	51877.86	3.1960	3.1960	-0.2255	27.34	1.58	-1.500			
0.8113	51921.13	3.1930	3.1931	-0.2230	27.35	1.59	-1.500			
0.8119	51963.53	3.1900	3.1900	-0.2194	27.35	1.59	-1.500			
0.8126	52005.36	3.1870	3.1869	-0.2163	27.36	1.60	-1.500			
0.8132	52046.60	3.1840	3.1841	-0.2139	27.37	1.61	-1.500			
0.8139	52087.20	3.1810	3.1810	-0.2109	27.37	1.61	-1.500			
0.8145	52127.71	3.1780	3.1779	-0.2085	27.38	1.62	-1.500			
0.8151	52167.45	3.1750	3.1750	-0.2055	27.39	1.63	-1.500			
0.8157	52206.40	3.1720	3.1720	-0.2032	27.39	1.63	-1.500			
0.8163	52245.13	3.1690	3.1690	-0.2010	27.40	1.64	-1.500			
0.8169	52283.43	3.1660	3.1661	-0.1991	27.40	1.64	-1.500			
0.8175	52321.48	3.1630	3.1628	-0.1973	27.41	1.65	-1.500			
0.8181	52359.04	3.1600	3.1601	-0.1948	27.42	1.66	-1.500			
0.8187	52396.29	3.1570	3.1570	-0.1934	27.42	1.66	-1.500			
0.8193	52433.51	3.1540	3.1540	-0.1916	27.43	1.67	-1.500			
0.8198	52470.08	3.1510	3.1511	-0.1893	27.43	1.67	-1.500			
0.8204	52506.18	3.1480	3.1479	-0.1869	27.44	1.68	-1.500			
0.8210	52541.86	3.1450	3.1451	-0.1849	27.45	1.69	-1.500			
0.8215	52576.84	3.1420	3.1420	-0.1831	27.45	1.69	-1.500			
0.8221	52611.84	3.1390	3.1390	-0.1816	27.46	1.70	-1.500			
0.8226	52646.52	3.1360	3.1360	-0.1801	27.46	1.70	-1.500			
0.8231	52680.74	3.1330	3.1330	-0.1784	27.47	1.71	-1.500			
0.8237	52715.14	3.1300	3.1300	-0.1775	27.47	1.71	-1.500			
0.8242	52749.08	3.1270	3.1271	-0.1761	27.48	1.72	-1.500			
0.8247	52782.90	3.1240	3.1240	-0.1745	27.48	1.72	-1.500			
0.8253	52816.21	3.1210	3.1210	-0.1730	27.49	1.73	-1.500			
0.8258	52849.03	3.1180	3.1180	-0.1712	27.49	1.73	-1.500			
0.8263	52881.80	3.1150	3.1150	-0.1701	27.50	1.74	-1.500			
0.8268	52914.49	3.1120	3.1120	-0.1681	27.50	1.74	-1.500			
0.8273	52946.48	3.1090	3.1091	-0.1669	27.51	1.75	-1.500			
0.8278	52978.32	3.1060	3.1060	-0.1658	27.51	1.75	-1.500			
0.8283	53010.06	3.1030	3.1031	-0.1648	27.52	1.76	-1.500			
0.8288	53041.63	3.1000	3.0999	-0.1632	27.52	1.76	-1.500			
0.8293	53072.73	3.0970	3.0971	-0.1619	27.53	1.77	-1.500			
0.8297	53103.67	3.0940	3.0940	-0.1608	27.53	1.77	-1.500			
0.8302	53134.44	3.0910	3.0910	-0.1598	27.54	1.78	-1.500			
0.8307	53165.22	3.0880	3.0880	-0.1590	27.54	1.78	-1.500			
0.8312	53195.35	3.0850	3.0850	-0.1577	27.55	1.79	-1.500			
0.8317	53225.64	3.0820	3.0819	-0.1565	27.55	1.79	-1.500			
0.8321	53255.61	3.0790	3.0790	-0.1556	27.56	1.80	-1.500			
0.8326	53285.52	3.0760	3.0761	-0.1550	27.56	1.80	-1.500			
0.8330	53315.08	3.0730	3.0730	-0.1540	27.57	1.81	-1.500			
0.8335	53344.81	3.0700	3.0699	-0.1525	27.58	1.82	-1.500			
0.8340	53373.95	3.0670	3.0670	-0.1510	27.58	1.82	-1.500			
0.8344	53402.72	3.0640	3.0640	-0.1507	27.59	1.83	-1.500			
0.8349	53431.61	3.0610	3.0611	-0.1494	27.59	1.83	-1.500			
0.8353	53460.28	3.0580	3.0578	-0.1483	27.60	1.84	-1.500			
0.8358	53488.63	3.0550	3.0550	-0.1470	27.60	1.84	-1.500			
0.8362	53516.50	3.0520	3.0521	-0.1463	27.61	1.85	-1.500			
0.8366	53544.53	3.0490	3.0490	-0.1454	27.62	1.86	-1.500			
0.8371	53572.63	3.0460	3.0459	-0.1449	27.62	1.86	-1.500			
0.8375	53600.32	3.0430	3.0430	-0.1436	27.63	1.87	-1.500			
0.8379	53627.51	3.0400	3.0401	-0.1422	27.63	1.87	-1.500			
0.8384	53654.95	3.0370	3.0370	-0.1415	27.64	1.88	-1.500			
0.8388	53681.82	3.0340	3.0339	-0.1408	27.64	1.88	-1.500			
0.8392	53708.79	3.0310	3.0310	-0.1401	27.65	1.89	-1.500			
0.8396	53735.45	3.0280	3.0280	-0.1387	27.65	1.89	-1.500			
0.8400	53762.10	3.0250	3.0250	-0.1380	27.66	1.90	-1.500			
0.8404	53788.50	3.0220	3.0221	-0.1375	27.67	1.91	-1.500			
0.8409	53814.83	3.0190	3.0190	-0.1368	27.67	1.91	-1.500			
0.8413	53841.01	3.0160	3.0160	-0.1363	27.68	1.92	-1.500			
0.8417	53867.15	3.0130	3.0130	-0.1353	27.68	1.92	-1.500			
0.8421	53892.89	3.0100	3.0100	-0.1344	27.69	1.93	-1.500			
0.8425	53918.66	3.0070	3.0070	-0.1340	27.69	1.93	-1.500			
0.8429	53944.54	3.0040	3.0041	-0.1322	27.70	1.94	-1.500			
0.8433	53969.69	3.0010	3.0010	-0.1288	27.70	1.94	-1.500			
