Relative time (s)	Voltage (V)	Temperature (°C)	
55.409	3.2315	26.58	
115.409	3.2617	26.52	
175.409	3.2775	26.46	
235.409	3.2882	26.38	
295.409	3.2957	26.29	
355.409	3.3015	26.22	
415.409	3.3058	26.14	
475.409	3.3094	26.07	
535.409	3.3123	26.00	
595.409	3.3148	25.96	
655.409	3.3168	25.90	
715.409	3.3186	25.86	
775.409	3.3204	25.82	
835.409	3.3217	25.80	
895.409	3.3230	25.78	
903.306	3.3229	25.76	
