Ah_balance (normalized)	Ah_balance (mAh)	Voltage - fit (V)	Voltage -  interpolate (V)	dQ/dV (1/V)	Temperature (°C)	Temperature - diff (°C)	Current (C)	R_DC 0ms (mOhm)	R_DC 50ms (mOhm)	R_DC 50 ms PEC (mOhm)
0.1850	11840.93	3.9300	3.9296	-0.0640	25.87	-0.01	-1.500			
0.1853	11857.02	3.9270	3.9269	-0.0978	25.87	-0.01	-1.500			
0.1856	11878.64	3.9240	3.9239	-0.1244	25.87	-0.01	-1.500			
0.1860	11905.50	3.9210	3.9210	-0.1491	25.87	-0.01	-1.500			
0.1865	11936.43	3.9180	3.9181	-0.1731	25.87	-0.01	-1.500			
0.1871	11972.10	3.9150	3.9150	-0.1943	25.87	-0.01	-1.500			
0.1877	12012.79	3.9120	3.9120	-0.2159	25.87	-0.01	-1.500			
0.1884	12055.95	3.9090	3.9091	-0.2367	25.87	-0.01	-1.500			
0.1891	12103.37	3.9060	3.9060	-0.2575	25.88	-0.00	-1.500			
0.1899	12154.79	3.9030	3.9030	-0.2780	25.88	-0.00	-1.500			
0.1908	12210.16	3.9000	3.9000	-0.2968	25.88	-0.00	-1.500			
0.1917	12269.50	3.8970	3.8971	-0.3155	25.88	-0.00	-1.500			
0.1927	12332.04	3.8940	3.8940	-0.3358	25.88	-0.00	-1.500			
0.1937	12398.30	3.8910	3.8909	-0.3537	25.88	-0.00	-1.500			
0.1948	12467.54	3.8880	3.8880	-0.3720	25.88	-0.00	-1.500			
0.1960	12540.95	3.8850	3.8851	-0.3903	25.88	-0.00	-1.500			
0.1972	12617.97	3.8820	3.8820	-0.4094	25.88	-0.00	-1.500			
0.1984	12698.81	3.8790	3.8790	-0.4267	25.88	-0.00	-1.500			
0.1997	12782.55	3.8760	3.8760	-0.4435	25.88	-0.00	-1.500			
0.2011	12869.40	3.8730	3.8731	-0.4565	25.88	0.00	-1.500			
0.2025	12959.30	3.8700	3.8700	-0.4715	25.88	0.00	-1.500			
0.2039	13051.20	3.8670	3.8670	-0.4830	25.88	0.00	-1.500			
0.2054	13145.09	3.8640	3.8640	-0.4956	25.88	0.00	-1.500			
0.2069	13241.39	3.8610	3.8610	-0.5075	25.88	0.00	-1.500			
0.2084	13340.51	3.8580	3.8580	-0.5157	25.88	0.00	-1.500			
0.2100	13440.65	3.8550	3.8550	-0.5241	25.88	0.00	-1.500			
0.2116	13542.29	3.8520	3.8521	-0.5326	25.88	0.00	-1.500			
0.2132	13645.07	3.8490	3.8490	-0.5408	25.88	0.00	-1.500			
0.2148	13749.62	3.8460	3.8460	-0.5488	25.89	0.01	-1.500			
0.2165	13855.86	3.8430	3.8430	-0.5537	25.89	0.01	-1.500			
0.2182	13963.06	3.8400	3.8400	-0.5610	25.89	0.01	-1.500			
0.2199	14072.40	3.8370	3.8370	-0.5702	25.89	0.01	-1.500			
0.2216	14181.99	3.8340	3.8340	-0.5734	25.89	0.01	-1.500			
0.2233	14292.55	3.8310	3.8309	-0.5771	25.89	0.01	-1.500			
0.2251	14403.60	3.8280	3.8280	-0.5824	25.89	0.01	-1.500			
0.2268	14516.09	3.8250	3.8249	-0.5866	25.89	0.01	-1.500			
0.2286	14629.43	3.8220	3.8220	-0.5914	25.90	0.02	-1.500			
0.2304	14743.17	3.8190	3.8190	-0.5959	25.90	0.02	-1.500			
0.2322	14858.10	3.8160	3.8160	-0.5982	25.90	0.02	-1.500			
0.2340	14974.05	3.8130	3.8130	-0.6031	25.91	0.03	-1.500			
0.2358	15090.57	3.8100	3.8100	-0.6032	25.91	0.03	-1.500			
0.2376	15206.08	3.8070	3.8070	-0.6039	25.91	0.03	-1.500			
0.2394	15322.03	3.8040	3.8040	-0.6072	25.92	0.04	-1.500			
0.2412	15437.85	3.8010	3.8010	-0.6109	25.92	0.04	-1.500			
0.2430	15555.15	3.7980	3.7979	-0.6143	25.92	0.04	-1.500			
0.2449	15674.05	3.7950	3.7949	-0.6206	25.93	0.05	-1.500			
0.2468	15794.40	3.7920	3.7920	-0.6235	25.93	0.05	-1.500			
0.2487	15915.09	3.7890	3.7890	-0.6271	25.94	0.06	-1.500			
0.2506	16035.88	3.7860	3.7860	-0.6289	25.94	0.06	-1.500			
0.2525	16157.05	3.7830	3.7830	-0.6287	25.94	0.06	-1.500			
0.2543	16276.64	3.7800	3.7800	-0.6293	25.95	0.07	-1.500			
0.2562	16396.76	3.7770	3.7771	-0.6372	25.95	0.07	-1.500			
0.2581	16519.10	3.7740	3.7740	-0.6436	25.96	0.08	-1.500			
0.2601	16644.81	3.7710	3.7709	-0.6485	25.96	0.08	-1.500			
0.2620	16769.53	3.7680	3.7680	-0.6523	25.97	0.09	-1.500			
0.2640	16895.99	3.7650	3.7651	-0.6571	25.97	0.09	-1.500			
0.2660	17023.27	3.7620	3.7620	-0.6591	25.98	0.10	-1.500			
0.2680	17149.27	3.7590	3.7589	-0.6601	25.98	0.10	-1.500			
0.2699	17275.57	3.7560	3.7561	-0.6615	25.99	0.11	-1.500			
0.2719	17402.65	3.7530	3.7530	-0.6656	25.99	0.11	-1.500			
0.2739	17530.88	3.7500	3.7500	-0.6714	26.00	0.12	-1.500			
0.2759	17659.49	3.7470	3.7470	-0.6757	26.00	0.12	-1.500			
0.2780	17789.35	3.7440	3.7440	-0.6841	26.00	0.12	-1.500			
0.2800	17922.06	3.7410	3.7410	-0.6910	26.01	0.13	-1.500			
0.2821	18055.65	3.7380	3.7380	-0.6959	26.01	0.13	-1.500			
0.2842	18190.01	3.7350	3.7350	-0.7040	26.02	0.14	-1.500			
0.2863	18326.11	3.7320	3.7320	-0.7091	26.02	0.14	-1.500			
0.2885	18462.61	3.7290	3.7290	-0.7137	26.03	0.15	-1.500			
0.2906	18600.27	3.7260	3.7260	-0.7166	26.03	0.15	-1.500			
0.2928	18737.30	3.7230	3.7231	-0.7222	26.03	0.15	-1.500			
0.2950	18877.34	3.7200	3.7200	-0.7302	26.04	0.16	-1.500			
0.2971	19017.16	3.7170	3.7169	-0.7372	26.04	0.16	-1.500			
0.2994	19158.92	3.7140	3.7140	-0.7433	26.05	0.17	-1.500			
0.3016	19303.22	3.7110	3.7110	-0.7507	26.05	0.17	-1.500			
0.3039	19449.67	3.7080	3.7079	-0.7537	26.06	0.18	-1.500			
0.3062	19594.77	3.7050	3.7050	-0.7599	26.06	0.18	-1.500			
0.3084	19739.97	3.7020	3.7021	-0.7625	26.07	0.19	-1.500			
0.3107	19886.89	3.6990	3.6989	-0.7692	26.07	0.19	-1.500			
0.3130	20033.97	3.6960	3.6960	-0.7724	26.07	0.19	-1.500			
0.3154	20182.87	3.6930	3.6930	-0.7813	26.08	0.20	-1.500			
0.3177	20333.39	3.6900	3.6901	-0.7896	26.08	0.20	-1.500			
0.3201	20486.85	3.6870	3.6870	-0.8017	26.09	0.21	-1.500			
0.3225	20640.71	3.6840	3.6839	-0.8082	26.09	0.21	-1.500			
0.3250	20796.93	3.6810	3.6810	-0.8185	26.10	0.22	-1.500			
0.3274	20955.35	3.6780	3.6781	-0.8252	26.10	0.22	-1.500			
0.3299	21115.70	3.6750	3.6750	-0.8320	26.11	0.23	-1.500			
0.3324	21275.71	3.6720	3.6720	-0.8378	26.11	0.23	-1.500			
0.3349	21435.84	3.6690	3.6690	-0.8455	26.11	0.23	-1.500			
0.3375	21597.86	3.6660	3.6659	-0.8563	26.12	0.24	-1.500			
0.3401	21763.89	3.6630	3.6630	-0.8622	26.12	0.24	-1.500			
0.3427	21930.14	3.6600	3.6600	-0.8730	26.13	0.25	-1.500			
0.3453	22101.28	3.6570	3.6570	-0.8796	26.13	0.25	-1.500			
0.3480	22270.35	3.6540	3.6539	-0.8861	26.14	0.26	-1.500			
0.3506	22440.67	3.6510	3.6511	-0.8896	26.14	0.26	-1.500			
0.3533	22611.12	3.6480	3.6479	-0.8993	26.14	0.26	-1.500			
0.3560	22783.10	3.6450	3.6450	-0.9067	26.15	0.27	-1.500			
0.3587	22958.44	3.6420	3.6420	-0.9225	26.16	0.28	-1.500			
0.3615	23135.05	3.6390	3.6390	-0.9330	26.16	0.28	-1.500			
0.3644	23318.78	3.6360	3.6360	-0.9456	26.17	0.29	-1.500			
0.3672	23500.08	3.6330	3.6331	-0.9574	26.17	0.29	-1.500			
0.3701	23685.99	3.6300	3.6300	-0.9691	26.18	0.30	-1.500			
0.3730	23872.31	3.6270	3.6270	-0.9791	26.18	0.30	-1.500			
0.3760	24062.09	3.6240	3.6241	-0.9867	26.19	0.31	-1.500			
0.3789	24251.90	3.6210	3.6210	-0.9937	26.19	0.31	-1.500			
0.3819	24443.43	3.6180	3.6180	-1.0072	26.20	0.32	-1.500			
0.3850	24637.02	3.6150	3.6150	-1.0204	26.20	0.32	-1.500			
0.3880	24832.51	3.6120	3.6120	-1.0293	26.20	0.32	-1.500			
0.3911	25032.02	3.6090	3.6090	-1.0440	26.21	0.33	-1.500			
0.3943	25234.89	3.6060	3.6060	-1.0549	26.21	0.33	-1.500			
0.3975	25438.49	3.6030	3.6030	-1.0719	26.22	0.34	-1.500			
0.4007	25645.18	3.6000	3.6001	-1.0831	26.22	0.34	-1.500			
0.4040	25853.60	3.5970	3.5970	-1.0952	26.23	0.35	-1.500			
0.4072	26063.89	3.5940	3.5939	-1.1116	26.23	0.35	-1.500			
0.4106	26280.40	3.5910	3.5911	-1.1288	26.24	0.36	-1.500			
0.4140	26498.43	3.5880	3.5880	-1.1448	26.25	0.37	-1.500			
0.4175	26722.13	3.5850	3.5850	-1.1611	26.25	0.37	-1.500			
0.4210	26943.65	3.5820	3.5820	-1.1813	26.26	0.38	-1.500			
0.4246	27172.92	3.5790	3.5791	-1.1965	26.27	0.39	-1.500			
0.4282	27404.14	3.5760	3.5759	-1.2121	26.27	0.39	-1.500			
0.4318	27637.66	3.5730	3.5730	-1.2282	26.28	0.40	-1.500			
0.4356	27875.47	3.5700	3.5702	-1.2449	26.28	0.40	-1.500			
0.4393	28114.68	3.5670	3.5670	-1.2619	26.29	0.41	-1.500			
0.4431	28360.02	3.5640	3.5640	-1.2794	26.29	0.41	-1.500			
0.4470	28605.58	3.5610	3.5610	-1.2938	26.30	0.42	-1.500			
0.4509	28858.12	3.5580	3.5580	-1.3161	26.30	0.42	-1.500			
0.4549	29111.49	3.5550	3.5550	-1.3299	26.31	0.43	-1.500			
0.4589	29367.53	3.5520	3.5520	-1.3468	26.31	0.43	-1.500			
0.4629	29627.72	3.5490	3.5490	-1.3674	26.32	0.44	-1.500			
0.4670	29890.53	3.5460	3.5460	-1.3828	26.33	0.45	-1.500			
0.4712	30159.69	3.5430	3.5430	-1.4032	26.33	0.45	-1.500			
0.4755	30430.69	3.5400	3.5400	-1.4209	26.34	0.46	-1.500			
0.4798	30704.58	3.5370	3.5370	-1.4470	26.35	0.47	-1.500			
0.4841	30985.35	3.5340	3.5340	-1.4627	26.35	0.47	-1.500			
0.4886	31268.95	3.5310	3.5309	-1.4807	26.36	0.48	-1.500			
0.4930	31554.96	3.5280	3.5281	-1.4924	26.37	0.49	-1.500			
0.4976	31844.38	3.5250	3.5250	-1.5080	26.37	0.49	-1.500			
0.5021	32134.29	3.5220	3.5221	-1.5179	26.38	0.50	-1.500	0.368	0.556	
0.5067	32427.17	3.5190	3.5190	-1.5251	26.39	0.51	-1.500			
0.5112	32718.57	3.5160	3.5160	-1.5431	26.40	0.52	-1.500			
0.5159	33017.87	3.5130	3.5130	-1.5580	26.40	0.52	-1.500			
0.5206	33318.97	3.5100	3.5100	-1.5740	26.41	0.53	-1.500			
0.5254	33622.66	3.5070	3.5071	-1.5815	26.42	0.54	-1.500			
0.5301	33927.52	3.5040	3.5040	-1.5903	26.43	0.55	-1.500			
0.5349	34234.46	3.5010	3.5010	-1.5972	26.44	0.56	-1.500			
0.5397	34541.17	3.4980	3.4980	-1.5984	26.45	0.57	-1.500			
0.5445	34846.64	3.4950	3.4949	-1.5966	26.46	0.58	-1.500			
0.5493	35157.75	3.4920	3.4921	-1.6005	26.48	0.60	-1.500			
0.5541	35463.84	3.4890	3.4890	-1.6010	26.49	0.61	-1.500			
0.5589	35770.86	3.4860	3.4860	-1.6069	26.50	0.62	-1.500			
0.5638	36080.11	3.4830	3.4830	-1.6000	26.51	0.63	-1.500			
0.5685	36386.44	3.4800	3.4800	-1.5929	26.52	0.64	-1.500			
0.5734	36694.83	3.4770	3.4770	-1.5885	26.53	0.65	-1.500			
0.5781	36999.64	3.4740	3.4739	-1.5741	26.55	0.67	-1.500			
0.5828	37299.25	3.4710	3.4710	-1.5665	26.56	0.68	-1.500			
0.5874	37596.18	3.4680	3.4680	-1.5526	26.58	0.70	-1.500			
0.5921	37894.32	3.4650	3.4650	-1.5348	26.59	0.71	-1.500			
0.5967	38189.78	3.4620	3.4619	-1.5269	26.61	0.73	-1.500			
0.6013	38481.26	3.4590	3.4592	-1.5121	26.62	0.74	-1.500			
0.6058	38769.58	3.4560	3.4559	-1.4976	26.64	0.76	-1.500			
0.6103	39056.44	3.4530	3.4530	-1.4854	26.65	0.77	-1.500			
0.6147	39340.45	3.4500	3.4500	-1.4611	26.66	0.78	-1.500			
0.6191	39620.16	3.4470	3.4470	-1.4431	26.68	0.80	-1.500			
0.6234	39896.14	3.4440	3.4441	-1.4267	26.69	0.81	-1.500			
0.6276	40165.94	3.4410	3.4409	-1.4031	26.71	0.83	-1.500			
0.6318	40432.71	3.4380	3.4380	-1.3884	26.72	0.84	-1.500			
0.6359	40696.33	3.4350	3.4350	-1.3691	26.74	0.86	-1.500			
0.6400	40961.23	3.4320	3.4320	-1.3584	26.76	0.88	-1.500			
0.6441	41223.02	3.4290	3.4290	-1.3397	26.77	0.89	-1.500			
0.6481	41478.27	3.4260	3.4260	-1.3160	26.79	0.91	-1.500			
0.6520	41727.25	3.4230	3.4231	-1.2933	26.81	0.93	-1.500			
0.6558	41972.49	3.4200	3.4199	-1.2682	26.82	0.94	-1.500			
0.6596	42211.91	3.4170	3.4170	-1.2486	26.84	0.96	-1.500			
0.6632	42447.83	3.4140	3.4140	-1.2263	26.85	0.97	-1.500			
0.6670	42686.54	3.4110	3.4110	-1.2110	26.87	0.99	-1.500			
0.6706	42918.66	3.4080	3.4079	-1.1895	26.89	1.01	-1.500			
0.6741	43144.64	3.4050	3.4050	-1.1634	26.90	1.02	-1.500			
0.6776	43365.22	3.4020	3.4020	-1.1318	26.91	1.03	-1.500			
0.6810	43581.34	3.3990	3.3989	-1.1020	26.93	1.05	-1.500			
0.6842	43787.61	3.3960	3.3961	-1.0697	26.94	1.06	-1.500			
0.6874	43990.87	3.3930	3.3930	-1.0435	26.96	1.08	-1.500			
0.6904	44188.49	3.3900	3.3899	-1.0131	26.98	1.10	-1.500			
0.6934	44380.31	3.3870	3.3870	-0.9831	26.99	1.11	-1.500			
0.6963	44566.18	3.3840	3.3840	-0.9543	27.01	1.13	-1.500			
0.6992	44747.05	3.3810	3.3810	-0.9313	27.01	1.13	-1.500			
0.7019	44922.96	3.3780	3.3780	-0.9045	27.03	1.15	-1.500			
0.7046	45093.11	3.3750	3.3749	-0.8750	27.04	1.16	-1.500			
0.7072	45258.73	3.3720	3.3720	-0.8524	27.05	1.17	-1.500			
0.7097	45420.01	3.3690	3.3691	-0.8273	27.06	1.18	-1.500			
0.7122	45577.63	3.3660	3.3660	-0.8072	27.08	1.20	-1.500			
0.7145	45730.41	3.3630	3.3629	-0.7806	27.09	1.21	-1.500			
0.7168	45877.41	3.3600	3.3600	-0.7554	27.10	1.22	-1.500			
0.7190	46018.44	3.3570	3.3570	-0.7378	27.11	1.23	-1.500			
0.7212	46158.45	3.3540	3.3540	-0.7188	27.12	1.24	-1.500			
0.7233	46293.51	3.3510	3.3510	-0.7001	27.13	1.25	-1.500			
0.7254	46426.52	3.3480	3.3480	-0.6861	27.14	1.26	-1.500			
0.7275	46557.45	3.3450	3.3451	-0.6678	27.15	1.27	-1.500			
0.7295	46685.26	3.3420	3.3419	-0.6522	27.16	1.28	-1.500			
0.7314	46808.48	3.3390	3.3391	-0.6331	27.17	1.29	-1.500			
0.7332	46926.87	3.3360	3.3360	-0.6141	27.18	1.30	-1.500			
0.7351	47043.84	3.3330	3.3330	-0.6018	27.18	1.30	-1.500			
0.7368	47157.54	3.3300	3.3300	-0.5847	27.19	1.31	-1.500			
0.7386	47267.50	3.3270	3.3269	-0.5695	27.20	1.32	-1.500			
0.7403	47376.09	3.3240	3.3241	-0.5567	27.21	1.33	-1.500			
0.7419	47480.99	3.3210	3.3210	-0.5429	27.22	1.34	-1.500			
0.7435	47584.06	3.3180	3.3179	-0.5288	27.22	1.34	-1.500			
0.7451	47683.87	3.3150	3.3150	-0.5155	27.23	1.35	-1.500			
0.7466	47781.88	3.3120	3.3120	-0.5024	27.24	1.36	-1.500			
0.7481	47877.34	3.3090	3.3090	-0.4922	27.25	1.37	-1.500			
0.7495	47970.49	3.3060	3.3061	-0.4796	27.26	1.38	-1.500			
0.7510	48061.18	3.3030	3.3030	-0.4667	27.27	1.39	-1.500			
0.7523	48149.28	3.3000	3.2999	-0.4560	27.28	1.40	-1.500			
0.7537	48235.73	3.2970	3.2971	-0.4460	27.29	1.41	-1.500			
0.7550	48320.20	3.2940	3.2940	-0.4344	27.30	1.42	-1.500			
0.7563	48403.63	3.2910	3.2909	-0.4234	27.30	1.42	-1.500			
0.7575	48483.06	3.2880	3.2880	-0.4118	27.31	1.43	-1.500			
0.7588	48560.56	3.2850	3.2851	-0.4013	27.32	1.44	-1.500			
0.7599	48636.32	3.2820	3.2820	-0.3921	27.32	1.44	-1.500			
0.7611	48709.91	3.2790	3.2789	-0.3822	27.33	1.45	-1.500			
0.7622	48782.70	3.2760	3.2760	-0.3756	27.34	1.46	-1.500			
0.7634	48854.69	3.2730	3.2730	-0.3679	27.35	1.47	-1.500			
0.7644	48924.80	3.2700	3.2700	-0.3595	27.35	1.47	-1.500			
0.7655	48992.55	3.2670	3.2670	-0.3507	27.36	1.48	-1.500			
0.7666	49059.44	3.2640	3.2639	-0.3433	27.36	1.48	-1.500			
0.7676	49123.62	3.2610	3.2610	-0.3348	27.37	1.49	-1.500			
0.7686	49187.34	3.2580	3.2580	-0.3280	27.38	1.50	-1.500			
0.7695	49249.56	3.2550	3.2550	-0.3220	27.38	1.50	-1.500			
0.7705	49310.94	3.2520	3.2520	-0.3168	27.39	1.51	-1.500			
0.7714	49370.85	3.2490	3.2490	-0.3100	27.39	1.51	-1.500			
0.7723	49429.75	3.2460	3.2459	-0.3040	27.40	1.52	-1.500			
0.7732	49487.79	3.2430	3.2431	-0.2982	27.40	1.52	-1.500			
0.7741	49544.26	3.2400	3.2400	-0.2928	27.41	1.53	-1.500			
0.7750	49600.12	3.2370	3.2370	-0.2882	27.42	1.54	-1.500			
0.7759	49654.69	3.2340	3.2340	-0.2827	27.42	1.54	-1.500			
0.7767	49708.07	3.2310	3.2309	-0.2770	27.43	1.55	-1.500			
0.7775	49760.96	3.2280	3.2281	-0.2728	27.43	1.55	-1.500			
0.7783	49812.87	3.2250	3.2250	-0.2685	27.44	1.56	-1.500			
0.7791	49863.97	3.2220	3.2221	-0.2646	27.45	1.57	-1.500			
0.7799	49914.35	3.2190	3.2190	-0.2609	27.45	1.57	-1.500			
0.7807	49963.61	3.2160	3.2159	-0.2569	27.46	1.58	-1.500			
0.7815	50012.85	3.2130	3.2130	-0.2531	27.47	1.59	-1.500			
0.7822	50061.33	3.2100	3.2100	-0.2491	27.47	1.59	-1.500			
0.7830	50109.09	3.2070	3.2070	-0.2454	27.48	1.60	-1.500			
0.7837	50155.70	3.2040	3.2040	-0.2402	27.49	1.61	-1.500			
0.7844	50201.13	3.2010	3.2010	-0.2367	27.49	1.61	-1.500			
0.7851	50245.61	3.1980	3.1980	-0.2324	27.50	1.62	-1.500			
0.7858	50289.70	3.1950	3.1950	-0.2294	27.50	1.62	-1.500			
0.7865	50333.64	3.1920	3.1920	-0.2273	27.51	1.63	-1.500			
0.7871	50377.03	3.1890	3.1890	-0.2253	27.51	1.63	-1.500			
0.7878	50420.34	3.1860	3.1860	-0.2226	27.52	1.64	-1.500			
0.7885	50462.79	3.1830	3.1830	-0.2198	27.53	1.65	-1.500			
0.7891	50504.98	3.1800	3.1800	-0.2172	27.53	1.65	-1.500			
0.7898	50546.19	3.1770	3.1770	-0.2138	27.54	1.66	-1.500			
0.7904	50587.14	3.1740	3.1740	-0.2103	27.55	1.67	-1.500			
0.7910	50626.81	3.1710	3.1710	-0.2080	27.55	1.67	-1.500			
0.7917	50666.39	3.1680	3.1680	-0.2054	27.56	1.68	-1.500			
0.7923	50705.63	3.1650	3.1650	-0.2034	27.56	1.68	-1.500			
0.7929	50744.39	3.1620	3.1619	-0.2017	27.57	1.69	-1.500			
0.7935	50782.79	3.1590	3.1591	-0.1996	27.58	1.70	-1.500			
0.7941	50821.11	3.1560	3.1561	-0.1983	27.58	1.70	-1.500			
0.7947	50859.02	3.1530	3.1529	-0.1966	27.59	1.71	-1.500			
0.7953	50896.78	3.1500	3.1500	-0.1954	27.59	1.71	-1.500			
0.7958	50933.90	3.1470	3.1470	-0.1929	27.60	1.72	-1.500			
0.7964	50971.16	3.1440	3.1441	-0.1912	27.61	1.73	-1.500			
0.7970	51007.51	3.1410	3.1409	-0.1890	27.61	1.73	-1.500			
0.7976	51043.56	3.1380	3.1381	-0.1868	27.62	1.74	-1.500			
0.7981	51079.18	3.1350	3.1350	-0.1850	27.62	1.74	-1.500			
0.7987	51114.34	3.1320	3.1319	-0.1830	27.63	1.75	-1.500			
0.7992	51149.42	3.1290	3.1290	-0.1813	27.63	1.75	-1.500			
0.7997	51183.91	3.1260	3.1261	-0.1795	27.64	1.76	-1.500			
0.8003	51218.35	3.1230	3.1230	-0.1781	27.64	1.76	-1.500			
0.8008	51252.42	3.1200	3.1201	-0.1768	27.65	1.77	-1.500			
0.8013	51286.03	3.1170	3.1171	-0.1749	27.66	1.78	-1.500			
0.8019	51319.49	3.1140	3.1139	-0.1736	27.66	1.78	-1.500			
0.8024	51352.57	3.1110	3.1110	-0.1723	27.67	1.79	-1.500			
0.8029	51385.51	3.1080	3.1080	-0.1712	27.68	1.80	-1.500			
0.8034	51418.40	3.1050	3.1050	-0.1705	27.68	1.80	-1.500			
0.8039	51451.05	3.1020	3.1019	-0.1690	27.69	1.81	-1.500			
0.8044	51483.38	3.0990	3.0990	-0.1677	27.69	1.81	-1.500			
0.8049	51515.55	3.0960	3.0961	-0.1661	27.70	1.82	-1.500			
0.8054	51547.42	3.0930	3.0929	-0.1647	27.71	1.83	-1.500			
0.8059	51578.84	3.0900	3.0900	-0.1628	27.71	1.83	-1.500			
0.8064	51609.74	3.0870	3.0870	-0.1618	27.72	1.84	-1.500			
0.8069	51640.46	3.0840	3.0841	-0.1607	27.72	1.84	-1.500			
0.8074	51671.25	3.0810	3.0809	-0.1601	27.73	1.85	-1.500			
0.8078	51701.95	3.0780	3.0780	-0.1584	27.73	1.85	-1.500			
0.8083	51732.17	3.0750	3.0750	-0.1576	27.74	1.86	-1.500			
0.8088	51762.46	3.0720	3.0719	-0.1571	27.75	1.87	-1.500			
0.8093	51792.53	3.0690	3.0690	-0.1561	27.75	1.87	-1.500			
0.8097	51822.51	3.0660	3.0660	-0.1545	27.76	1.88	-1.500			
0.8102	51851.78	3.0630	3.0630	-0.1534	27.76	1.88	-1.500			
0.8106	51881.11	3.0600	3.0600	-0.1526	27.77	1.89	-1.500			
0.8111	51910.34	3.0570	3.0571	-0.1519	27.77	1.89	-1.500			
0.8116	51939.59	3.0540	3.0539	-0.1515	27.78	1.90	-1.500			
0.8120	51968.54	3.0510	3.0510	-0.1498	27.79	1.91	-1.500			
0.8125	51997.25	3.0480	3.0480	-0.1490	27.79	1.91	-1.500			
0.8129	52025.76	3.0450	3.0451	-0.1480	27.80	1.92	-1.500			
0.8133	52054.25	3.0420	3.0420	-0.1474	27.80	1.92	-1.500			
0.8138	52082.32	3.0390	3.0389	-0.1457	27.81	1.93	-1.500			
0.8142	52110.17	3.0360	3.0360	-0.1446	27.81	1.93	-1.500			
0.8147	52137.84	3.0330	3.0331	-0.1436	27.82	1.94	-1.500			
0.8151	52165.19	3.0300	3.0300	-0.1428	27.82	1.94	-1.500			
0.8155	52192.63	3.0270	3.0269	-0.1425	27.83	1.95	-1.500			
0.8159	52219.94	3.0240	3.0240	-0.1410	27.84	1.96	-1.500			
0.8164	52246.96	3.0210	3.0210	-0.1398	27.84	1.96	-1.500			
0.8168	52273.73	3.0180	3.0180	-0.1388	27.85	1.97	-1.500			
0.8172	52300.26	3.0150	3.0151	-0.1388	27.85	1.97	-1.500			
0.8176	52326.69	3.0120	3.0119	-0.1379	27.86	1.98	-1.500			
0.8180	52353.13	3.0090	3.0090	-0.1375	27.86	1.98	-1.500			
0.8184	52379.30	3.0060	3.0059	-0.1387	27.87	1.99	-1.500			
0.8188	52406.31	3.0030	3.0030	-0.1446	27.87	1.99	-1.499			
