Ah_balance (normalized)	Ah_balance (mAh)	Voltage - fit (V)	Voltage -  interpolate (V)	dQ/dV (1/V)	Temperature (°C)	Temperature - diff (°C)	Current (C)	R_DC 0ms (mOhm)	R_DC 50ms (mOhm)	R_DC 50 ms PEC (mOhm)
0.1928	12337.30	3.9250	3.9250	-0.1140	25.71	-0.03	-1.500			
0.1932	12362.99	3.9220	3.9218	-0.1452	25.71	-0.03	-1.500			
0.1937	12393.62	3.9190	3.9189	-0.1719	25.71	-0.03	-1.500			
0.1942	12428.76	3.9160	3.9162	-0.1993	25.71	-0.03	-1.500			
0.1948	12469.62	3.9130	3.9131	-0.2271	25.71	-0.03	-1.500			
0.1956	12516.30	3.9100	3.9099	-0.2539	25.71	-0.03	-1.500			
0.1964	12567.79	3.9070	3.9070	-0.2784	25.71	-0.03	-1.500			
0.1972	12623.78	3.9040	3.9041	-0.3036	25.72	-0.02	-1.500			
0.1982	12684.57	3.9010	3.9011	-0.3302	25.72	-0.02	-1.500			
0.1992	12750.77	3.8980	3.8980	-0.3552	25.72	-0.02	-1.500			
0.2003	12821.14	3.8950	3.8950	-0.3792	25.72	-0.02	-1.500			
0.2015	12895.98	3.8920	3.8920	-0.4048	25.72	-0.02	-1.500			
0.2028	12976.49	3.8890	3.8890	-0.4304	25.72	-0.02	-1.500			
0.2041	13062.74	3.8860	3.8859	-0.4532	25.73	-0.01	-1.500			
0.2055	13151.76	3.8830	3.8830	-0.4736	25.73	-0.01	-1.500			
0.2069	13244.53	3.8800	3.8801	-0.4957	25.73	-0.01	-1.500			
0.2085	13342.15	3.8770	3.8770	-0.5175	25.73	-0.01	-1.500			
0.2101	13443.65	3.8740	3.8739	-0.5360	25.74	-0.00	-1.500			
0.2117	13548.78	3.8710	3.8709	-0.5525	25.74	-0.00	-1.500			
0.2134	13657.53	3.8680	3.8681	-0.5708	25.74	0.00	-1.500			
0.2152	13769.70	3.8650	3.8650	-0.5839	25.74	0.00	-1.500			
0.2169	13883.23	3.8620	3.8620	-0.5943	25.75	0.01	-1.500			
0.2187	13997.82	3.8590	3.8590	-0.6035	25.75	0.01	-1.500			
0.2205	14114.86	3.8560	3.8560	-0.6138	25.75	0.01	-1.500			
0.2224	14233.57	3.8530	3.8530	-0.6247	25.76	0.02	-1.500			
0.2243	14354.09	3.8500	3.8500	-0.6349	25.76	0.02	-1.500			
0.2262	14477.66	3.8470	3.8470	-0.6420	25.76	0.02	-1.500			
0.2282	14602.46	3.8440	3.8440	-0.6489	25.77	0.03	-1.500			
0.2301	14728.56	3.8410	3.8410	-0.6537	25.77	0.03	-1.500			
0.2321	14854.21	3.8380	3.8380	-0.6590	25.77	0.03	-1.500			
0.2341	14981.00	3.8350	3.8350	-0.6635	25.77	0.03	-1.500			
0.2361	15108.43	3.8320	3.8319	-0.6680	25.78	0.04	-1.500			
0.2381	15236.85	3.8290	3.8290	-0.6720	25.78	0.04	-1.500			
0.2401	15366.83	3.8260	3.8261	-0.6779	25.79	0.05	-1.500			
0.2422	15498.61	3.8230	3.8230	-0.6802	25.79	0.05	-1.500			
0.2442	15629.80	3.8200	3.8199	-0.6797	25.80	0.06	-1.500			
0.2462	15759.16	3.8170	3.8171	-0.6791	25.80	0.06	-1.500			
0.2483	15889.95	3.8140	3.8140	-0.6794	25.81	0.07	-1.500			
0.2503	16020.29	3.8110	3.8110	-0.6805	25.81	0.07	-1.500			
0.2524	16151.22	3.8080	3.8079	-0.6801	25.82	0.08	-1.500			
0.2544	16280.16	3.8050	3.8051	-0.6853	25.82	0.08	-1.500			
0.2564	16412.52	3.8020	3.8020	-0.6908	25.83	0.09	-1.500			
0.2585	16546.78	3.7990	3.7989	-0.6928	25.83	0.09	-1.500			
0.2606	16680.81	3.7960	3.7960	-0.6907	25.84	0.10	-1.500			
0.2627	16814.02	3.7930	3.7931	-0.6926	25.84	0.10	-1.500			
0.2648	16947.03	3.7900	3.7900	-0.6889	25.85	0.11	-1.500			
0.2669	17078.90	3.7870	3.7869	-0.6902	25.85	0.11	-1.500			
0.2689	17209.64	3.7840	3.7841	-0.6886	25.86	0.12	-1.500			
0.2710	17341.50	3.7810	3.7809	-0.6901	25.87	0.13	-1.500			
0.2730	17474.68	3.7780	3.7780	-0.6925	25.87	0.13	-1.500			
0.2751	17608.38	3.7750	3.7750	-0.6965	25.88	0.14	-1.500			
0.2772	17741.78	3.7720	3.7720	-0.6949	25.89	0.15	-1.500			
0.2793	17875.77	3.7690	3.7690	-0.6995	25.89	0.15	-1.500			
0.2814	18009.71	3.7660	3.7660	-0.6994	25.90	0.16	-1.500			
0.2835	18144.00	3.7630	3.7630	-0.7027	25.91	0.17	-1.500			
0.2856	18279.99	3.7600	3.7599	-0.7040	25.91	0.17	-1.500			
0.2877	18415.88	3.7570	3.7571	-0.7045	25.92	0.18	-1.500			
0.2899	18550.87	3.7540	3.7540	-0.7041	25.93	0.19	-1.500			
0.2920	18686.60	3.7510	3.7510	-0.7072	25.93	0.19	-1.500			
0.2941	18821.79	3.7480	3.7480	-0.7055	25.94	0.20	-1.500			
0.2962	18955.66	3.7450	3.7450	-0.7108	25.95	0.21	-1.500			
0.2983	19091.24	3.7420	3.7420	-0.7190	25.95	0.21	-1.500			
0.3005	19231.18	3.7390	3.7390	-0.7243	25.96	0.22	-1.500			
0.3027	19370.62	3.7360	3.7360	-0.7302	25.97	0.23	-1.500			
0.3049	19511.92	3.7330	3.7331	-0.7372	25.98	0.24	-1.500			
0.3071	19654.62	3.7300	3.7299	-0.7416	25.98	0.24	-1.500			
0.3094	19798.41	3.7270	3.7270	-0.7448	25.99	0.25	-1.500			
0.3116	19940.46	3.7240	3.7240	-0.7445	26.00	0.26	-1.500			
0.3138	20082.35	3.7210	3.7211	-0.7495	26.00	0.26	-1.500			
0.3161	20227.95	3.7180	3.7180	-0.7566	26.01	0.27	-1.500			
0.3183	20371.93	3.7150	3.7149	-0.7607	26.02	0.28	-1.500			
0.3206	20518.32	3.7120	3.7121	-0.7715	26.03	0.29	-1.500			
0.3229	20667.40	3.7090	3.7090	-0.7824	26.03	0.29	-1.500			
0.3253	20820.39	3.7060	3.7059	-0.7904	26.04	0.30	-1.500			
0.3277	20973.34	3.7030	3.7031	-0.7956	26.05	0.31	-1.500			
0.3301	21125.73	3.7000	3.7000	-0.8010	26.06	0.32	-1.500			
0.3325	21280.54	3.6970	3.6970	-0.8085	26.06	0.32	-1.500			
0.3349	21435.20	3.6940	3.6940	-0.8156	26.07	0.33	-1.500			
0.3374	21591.44	3.6910	3.6908	-0.8277	26.08	0.34	-1.500			
0.3399	21751.87	3.6880	3.6880	-0.8388	26.09	0.35	-1.500			
0.3424	21914.36	3.6850	3.6850	-0.8536	26.09	0.35	-1.500			
0.3450	22079.11	3.6820	3.6820	-0.8709	26.10	0.36	-1.500			
0.3476	22248.41	3.6790	3.6790	-0.8821	26.10	0.36	-1.500			
0.3503	22418.87	3.6760	3.6760	-0.8959	26.11	0.37	-1.500			
0.3530	22591.95	3.6730	3.6731	-0.9105	26.12	0.38	-1.500			
0.3558	22769.18	3.6700	3.6700	-0.9169	26.12	0.38	-1.500			
0.3585	22946.60	3.6670	3.6670	-0.9287	26.13	0.39	-1.500			
0.3613	23124.64	3.6640	3.6641	-0.9412	26.14	0.40	-1.500			
0.3642	23306.47	3.6610	3.6610	-0.9515	26.14	0.40	-1.500			
0.3670	23491.13	3.6580	3.6579	-0.9695	26.15	0.41	-1.500			
0.3700	23677.04	3.6550	3.6551	-0.9854	26.15	0.41	-1.500			
0.3729	23867.77	3.6520	3.6520	-0.9981	26.16	0.42	-1.500			
0.3760	24061.92	3.6490	3.6491	-1.0166	26.17	0.43	-1.500			
0.3790	24257.74	3.6460	3.6460	-1.0329	26.17	0.43	-1.500			
0.3822	24458.29	3.6430	3.6429	-1.0484	26.18	0.44	-1.500			
0.3854	24662.74	3.6400	3.6400	-1.0635	26.19	0.45	-1.500			
0.3885	24866.81	3.6370	3.6371	-1.0774	26.19	0.45	-1.500			
0.3918	25074.28	3.6340	3.6341	-1.0965	26.20	0.46	-1.500			
0.3951	25287.15	3.6310	3.6309	-1.1180	26.20	0.46	-1.500			
0.3984	25500.25	3.6280	3.6280	-1.1341	26.20	0.46	-1.500			
0.4019	25722.92	3.6250	3.6250	-1.1563	26.21	0.47	-1.500			
0.4054	25948.28	3.6220	3.6220	-1.1786	26.21	0.47	-1.500			
0.4090	26176.47	3.6190	3.6190	-1.1959	26.22	0.48	-1.500			
0.4126	26406.65	3.6160	3.6161	-1.2096	26.22	0.48	-1.500			
0.4163	26640.29	3.6130	3.6130	-1.2268	26.23	0.49	-1.500			
0.4200	26877.31	3.6100	3.6100	-1.2407	26.23	0.49	-1.500			
0.4237	27115.48	3.6070	3.6070	-1.2645	26.24	0.50	-1.500			
0.4275	27361.00	3.6040	3.6040	-1.2869	26.24	0.50	-1.500			
0.4314	27609.02	3.6010	3.6009	-1.3050	26.25	0.51	-1.500			
0.4354	27862.48	3.5980	3.5980	-1.3227	26.26	0.52	-1.500			
0.4394	28118.64	3.5950	3.5950	-1.3434	26.26	0.52	-1.500			
0.4434	28378.75	3.5920	3.5920	-1.3635	26.26	0.52	-1.500			
0.4476	28643.25	3.5890	3.5889	-1.3797	26.27	0.53	-1.500			
0.4517	28906.87	3.5860	3.5860	-1.3869	26.27	0.53	-1.500			
0.4559	29175.73	3.5830	3.5831	-1.4111	26.27	0.53	-1.500			
0.4601	29448.75	3.5800	3.5800	-1.4279	26.28	0.54	-1.500			
0.4644	29724.65	3.5770	3.5769	-1.4465	26.28	0.54	-1.500			
0.4688	30002.13	3.5740	3.5740	-1.4638	26.29	0.55	-1.500			
0.4732	30285.34	3.5710	3.5711	-1.4870	26.29	0.55	-1.500			
0.4777	30574.97	3.5680	3.5679	-1.5092	26.30	0.56	-1.500			
0.4823	30866.18	3.5650	3.5650	-1.5325	26.30	0.56	-1.500			
0.4869	31160.41	3.5620	3.5620	-1.5489	26.31	0.57	-1.500			
0.4916	31460.44	3.5590	3.5590	-1.5728	26.31	0.57	-1.500			
0.4963	31765.22	3.5560	3.5560	-1.5930	26.32	0.58	-1.500			
0.5012	32073.96	3.5530	3.5530	-1.6099	26.33	0.59	-1.500			
0.5060	32383.77	3.5500	3.5499	-1.6263	26.33	0.59	-1.500			
0.5109	32698.25	3.5470	3.5471	-1.6465	26.34	0.60	-1.500			
0.5158	33013.76	3.5440	3.5441	-1.6698	26.35	0.61	-1.500			
0.5209	33338.64	3.5410	3.5409	-1.6862	26.35	0.61	-1.500			
0.5260	33665.44	3.5380	3.5380	-1.6992	26.36	0.62	-1.500			
0.5312	33995.00	3.5350	3.5350	-1.7092	26.37	0.63	-1.500			
0.5363	34326.37	3.5320	3.5320	-1.7210	26.38	0.64	-1.500	0.383	0.520	
0.5415	34656.70	3.5290	3.5290	-1.7220	26.38	0.64	-1.500			
0.5466	34983.21	3.5260	3.5260	-1.7308	26.39	0.65	-1.500			
0.5518	35315.34	3.5230	3.5229	-1.7392	26.39	0.65	-1.500			
0.5571	35654.54	3.5200	3.5200	-1.7504	26.40	0.66	-1.500			
0.5624	35991.12	3.5170	3.5171	-1.7626	26.40	0.66	-1.500			
0.5677	36332.80	3.5140	3.5140	-1.7678	26.41	0.67	-1.500			
0.5730	36671.05	3.5110	3.5110	-1.7635	26.42	0.68	-1.500			
0.5782	37007.42	3.5080	3.5080	-1.7599	26.43	0.69	-1.500			
0.5835	37346.60	3.5050	3.5050	-1.7657	26.43	0.69	-1.500			
0.5888	37686.31	3.5020	3.5020	-1.7657	26.44	0.70	-1.500			
0.5942	38026.08	3.4990	3.4990	-1.7584	26.45	0.71	-1.500			
0.5994	38360.84	3.4960	3.4961	-1.7527	26.45	0.71	-1.500			
0.6047	38699.26	3.4930	3.4930	-1.7520	26.46	0.72	-1.500			
0.6099	39034.06	3.4900	3.4899	-1.7494	26.47	0.73	-1.500			
0.6152	39369.78	3.4870	3.4870	-1.7351	26.47	0.73	-1.500			
0.6204	39703.56	3.4840	3.4840	-1.7238	26.48	0.74	-1.500			
0.6256	40035.31	3.4810	3.4811	-1.7148	26.49	0.75	-1.500			
0.6306	40360.23	3.4780	3.4780	-1.6970	26.50	0.76	-1.500			
0.6357	40684.79	3.4750	3.4750	-1.6788	26.51	0.77	-1.500			
0.6407	41005.85	3.4720	3.4719	-1.6645	26.52	0.78	-1.500			
0.6457	41322.52	3.4690	3.4691	-1.6513	26.53	0.79	-1.500			
0.6506	41641.48	3.4660	3.4660	-1.6288	26.54	0.80	-1.500			
0.6555	41953.28	3.4630	3.4630	-1.6061	26.55	0.81	-1.500			
0.6603	42258.91	3.4600	3.4599	-1.5861	26.56	0.82	-1.500			
0.6650	42560.10	3.4570	3.4570	-1.5617	26.57	0.83	-1.500			
0.6697	42859.10	3.4540	3.4539	-1.5392	26.58	0.84	-1.500			
0.6742	43151.85	3.4510	3.4510	-1.5181	26.59	0.85	-1.500			
0.6788	43440.48	3.4480	3.4480	-1.4881	26.60	0.86	-1.500			
0.6832	43726.90	3.4450	3.4450	-1.4762	26.61	0.87	-1.500			
0.6876	44007.79	3.4420	3.4422	-1.4525	26.62	0.88	-1.500			
0.6919	44283.93	3.4390	3.4390	-1.4296	26.64	0.90	-1.500			
0.6962	44553.69	3.4360	3.4360	-1.4198	26.66	0.92	-1.500			
0.7004	44824.98	3.4330	3.4330	-1.4047	26.67	0.93	-1.500			
0.7046	45094.99	3.4300	3.4299	-1.3885	26.69	0.95	-1.500			
0.7087	45359.30	3.4270	3.4270	-1.3724	26.71	0.97	-1.500			
0.7128	45620.44	3.4240	3.4242	-1.3545	26.72	0.98	-1.500			
0.7169	45879.97	3.4210	3.4209	-1.3414	26.74	1.00	-1.500			
0.7209	46136.38	3.4180	3.4180	-1.3224	26.75	1.01	-1.500			
0.7248	46388.32	3.4150	3.4150	-1.3003	26.76	1.02	-1.500			
0.7287	46638.24	3.4120	3.4120	-1.2890	26.78	1.04	-1.500			
0.7326	46885.94	3.4090	3.4090	-1.2581	26.79	1.05	-1.500			
0.7363	47123.71	3.4060	3.4060	-1.2279	26.81	1.07	-1.500			
0.7399	47356.61	3.4030	3.4030	-1.1994	26.82	1.08	-1.500			
0.7435	47583.71	3.4000	3.4000	-1.1665	26.84	1.10	-1.500			
0.7470	47805.47	3.3970	3.3969	-1.1294	26.85	1.11	-1.500			
0.7503	48018.88	3.3940	3.3940	-1.0934	26.87	1.13	-1.500			
0.7535	48225.96	3.3910	3.3911	-1.0594	26.88	1.14	-1.500			
0.7567	48427.74	3.3880	3.3879	-1.0271	26.90	1.16	-1.500			
0.7597	48619.25	3.3850	3.3850	-0.9864	26.91	1.17	-1.500			
0.7626	48805.85	3.3820	3.3821	-0.9502	26.93	1.19	-1.500			
0.7654	48985.25	3.3790	3.3790	-0.9170	26.94	1.20	-1.500			
0.7681	49157.64	3.3760	3.3760	-0.8842	26.96	1.22	-1.500			
0.7707	49322.55	3.3730	3.3730	-0.8467	26.97	1.23	-1.500			
0.7731	49480.91	3.3700	3.3700	-0.8205	26.98	1.24	-1.500			
0.7756	49635.43	3.3670	3.3670	-0.7906	27.00	1.26	-1.500			
0.7779	49783.71	3.3640	3.3640	-0.7662	27.01	1.27	-1.500			
0.7801	49929.37	3.3610	3.3610	-0.7433	27.02	1.28	-1.500			
0.7823	50069.79	3.3580	3.3581	-0.7163	27.03	1.29	-1.500			
0.7844	50204.58	3.3550	3.3550	-0.6934	27.03	1.29	-1.500			
0.7865	50335.25	3.3520	3.3521	-0.6736	27.04	1.30	-1.500			
0.7885	50461.59	3.3490	3.3489	-0.6495	27.05	1.31	-1.500			
0.7904	50584.28	3.3460	3.3459	-0.6285	27.06	1.32	-1.500			
0.7922	50702.27	3.3430	3.3431	-0.6085	27.07	1.33	-1.500			
0.7940	50818.70	3.3400	3.3400	-0.5898	27.08	1.34	-1.500			
0.7958	50929.77	3.3370	3.3369	-0.5683	27.08	1.34	-1.500			
0.7974	51034.86	3.3340	3.3340	-0.5488	27.09	1.35	-1.500			
0.7990	51137.77	3.3310	3.3309	-0.5353	27.10	1.36	-1.500			
0.8006	51239.37	3.3280	3.3280	-0.5223	27.11	1.37	-1.500			
0.8022	51338.34	3.3250	3.3250	-0.5093	27.12	1.38	-1.500			
0.8037	51434.91	3.3220	3.3220	-0.4970	27.13	1.39	-1.500			
0.8052	51530.40	3.3190	3.3190	-0.4849	27.13	1.39	-1.500			
0.8066	51621.31	3.3160	3.3160	-0.4730	27.14	1.40	-1.500			
0.8080	51710.43	3.3130	3.3129	-0.4602	27.15	1.41	-1.500			
0.8093	51797.37	3.3100	3.3100	-0.4479	27.16	1.42	-1.500			
0.8107	51883.01	3.3070	3.3071	-0.4368	27.16	1.42	-1.500			
0.8120	51965.80	3.3040	3.3040	-0.4263	27.17	1.43	-1.500			
0.8132	52046.35	3.3010	3.3010	-0.4159	27.18	1.44	-1.500			
0.8145	52124.88	3.2980	3.2979	-0.4058	27.18	1.44	-1.500			
0.8156	52201.22	3.2950	3.2949	-0.3952	27.19	1.45	-1.500			
0.8168	52276.57	3.2920	3.2920	-0.3852	27.20	1.46	-1.500			
0.8180	52349.65	3.2890	3.2890	-0.3754	27.21	1.47	-1.500			
0.8191	52420.87	3.2860	3.2860	-0.3671	27.21	1.47	-1.500			
0.8202	52489.93	3.2830	3.2829	-0.3579	27.22	1.48	-1.500			
0.8212	52557.24	3.2800	3.2800	-0.3479	27.23	1.49	-1.500			
0.8222	52623.18	3.2770	3.2770	-0.3416	27.23	1.49	-1.500			
0.8233	52688.28	3.2740	3.2741	-0.3337	27.24	1.50	-1.500			
0.8242	52751.82	3.2710	3.2708	-0.3260	27.24	1.50	-1.500			
0.8252	52813.42	3.2680	3.2680	-0.3190	27.25	1.51	-1.500			
0.8262	52873.80	3.2650	3.2649	-0.3125	27.26	1.52	-1.500			
0.8271	52933.23	3.2620	3.2620	-0.3053	27.26	1.52	-1.500			
0.8280	52991.43	3.2590	3.2591	-0.2993	27.27	1.53	-1.500			
0.8289	53047.62	3.2560	3.2560	-0.2921	27.27	1.53	-1.500			
0.8297	53103.33	3.2530	3.2530	-0.2872	27.28	1.54	-1.500			
0.8306	53157.53	3.2500	3.2499	-0.2812	27.29	1.55	-1.500			
0.8314	53210.70	3.2470	3.2470	-0.2759	27.29	1.55	-1.500			
0.8322	53263.43	3.2440	3.2440	-0.2707	27.30	1.56	-1.500			
0.8330	53314.99	3.2410	3.2410	-0.2673	27.30	1.56	-1.500			
0.8338	53365.86	3.2380	3.2380	-0.2622	27.31	1.57	-1.500			
0.8346	53415.91	3.2350	3.2350	-0.2577	27.31	1.57	-1.500			
0.8354	53464.53	3.2320	3.2319	-0.2530	27.32	1.58	-1.500			
0.8361	53512.97	3.2290	3.2291	-0.2487	27.32	1.58	-1.500			
0.8369	53560.12	3.2260	3.2260	-0.2451	27.33	1.59	-1.500			
0.8376	53606.87	3.2230	3.2230	-0.2415	27.33	1.59	-1.500			
0.8383	53652.82	3.2200	3.2200	-0.2378	27.34	1.60	-1.500			
0.8390	53697.65	3.2170	3.2170	-0.2336	27.34	1.60	-1.500			
0.8397	53742.61	3.2140	3.2140	-0.2301	27.35	1.61	-1.500			
0.8404	53786.37	3.2110	3.2110	-0.2267	27.36	1.62	-1.500			
0.8411	53829.53	3.2080	3.2080	-0.2225	27.36	1.62	-1.500			
0.8418	53872.12	3.2050	3.2050	-0.2188	27.37	1.63	-1.500			
0.8424	53913.15	3.2020	3.2019	-0.2165	27.37	1.63	-1.500			
0.8430	53954.31	3.1990	3.1990	-0.2143	27.38	1.64	-1.500			
0.8437	53995.24	3.1960	3.1959	-0.2118	27.38	1.64	-1.500			
0.8443	54035.73	3.1930	3.1930	-0.2100	27.39	1.65	-1.500			
0.8449	54076.02	3.1900	3.1901	-0.2078	27.39	1.65	-1.500			
0.8456	54115.86	3.1870	3.1870	-0.2052	27.40	1.66	-1.500			
0.8462	54155.02	3.1840	3.1840	-0.2038	27.41	1.67	-1.500			
0.8468	54193.89	3.1810	3.1810	-0.2011	27.41	1.67	-1.500			
0.8474	54231.80	3.1780	3.1780	-0.1982	27.42	1.68	-1.500			
0.8480	54269.70	3.1750	3.1750	-0.1962	27.42	1.68	-1.500			
0.8486	54307.38	3.1720	3.1720	-0.1942	27.43	1.69	-1.500			
0.8491	54344.44	3.1690	3.1691	-0.1919	27.43	1.69	-1.500			
0.8497	54381.06	3.1660	3.1660	-0.1900	27.44	1.70	-1.500			
0.8503	54417.15	3.1630	3.1630	-0.1886	27.44	1.70	-1.500			
0.8508	54453.11	3.1600	3.1599	-0.1859	27.45	1.71	-1.500			
0.8514	54488.68	3.1570	3.1570	-0.1845	27.45	1.71	-1.500			
0.8519	54524.01	3.1540	3.1540	-0.1833	27.46	1.72	-1.500			
0.8525	54559.16	3.1510	3.1511	-0.1816	27.46	1.72	-1.500			
0.8530	54594.16	3.1480	3.1479	-0.1800	27.47	1.73	-1.500			
0.8536	54628.48	3.1450	3.1450	-0.1775	27.47	1.73	-1.500			
0.8541	54662.28	3.1420	3.1420	-0.1753	27.48	1.74	-1.500			
0.8546	54695.30	3.1390	3.1390	-0.1737	27.48	1.74	-1.500			
0.8551	54728.75	3.1360	3.1360	-0.1725	27.49	1.75	-1.500			
0.8557	54761.71	3.1330	3.1330	-0.1709	27.49	1.75	-1.500			
0.8562	54794.09	3.1300	3.1300	-0.1691	27.50	1.76	-1.500			
0.8567	54826.52	3.1270	3.1272	-0.1681	27.50	1.76	-1.500			
0.8572	54858.80	3.1240	3.1240	-0.1673	27.50	1.76	-1.500			
0.8577	54890.78	3.1210	3.1210	-0.1658	27.51	1.77	-1.500			
0.8582	54922.40	3.1180	3.1180	-0.1646	27.51	1.77	-1.500			
0.8587	54953.75	3.1150	3.1150	-0.1629	27.52	1.78	-1.500			
0.8591	54985.10	3.1120	3.1121	-0.1624	27.52	1.78	-1.500			
0.8596	55016.15	3.1090	3.1089	-0.1611	27.53	1.79	-1.500			
0.8601	55047.01	3.1060	3.1060	-0.1593	27.53	1.79	-1.500			
0.8606	55077.45	3.1030	3.1029	-0.1577	27.54	1.80	-1.500			
0.8611	55107.49	3.1000	3.1001	-0.1563	27.54	1.80	-1.500			
0.8615	55137.35	3.0970	3.0970	-0.1548	27.54	1.80	-1.500			
0.8620	55166.65	3.0940	3.0940	-0.1545	27.55	1.81	-1.500			
0.8624	55196.13	3.0910	3.0911	-0.1540	27.55	1.81	-1.500			
0.8629	55225.68	3.0880	3.0880	-0.1532	27.56	1.82	-1.500			
0.8634	55255.08	3.0850	3.0850	-0.1531	27.56	1.82	-1.500			
0.8638	55284.84	3.0820	3.0820	-0.1521	27.57	1.83	-1.500			
0.8643	55314.04	3.0790	3.0790	-0.1513	27.58	1.84	-1.500			
0.8647	55343.16	3.0760	3.0760	-0.1500	27.58	1.84	-1.500			
0.8652	55371.78	3.0730	3.0729	-0.1481	27.59	1.85	-1.500			
0.8656	55399.75	3.0700	3.0700	-0.1467	27.60	1.86	-1.500			
0.8661	55427.71	3.0670	3.0671	-0.1456	27.60	1.86	-1.500			
0.8665	55455.38	3.0640	3.0640	-0.1448	27.61	1.87	-1.500			
0.8669	55483.16	3.0610	3.0609	-0.1444	27.61	1.87	-1.500			
0.8674	55510.98	3.0580	3.0580	-0.1433	27.62	1.88	-1.500			
0.8678	55538.22	3.0550	3.0549	-0.1426	27.63	1.89	-1.500			
0.8682	55565.85	3.0520	3.0520	-0.1423	27.63	1.89	-1.500			
0.8686	55593.05	3.0490	3.0492	-0.1411	27.64	1.90	-1.500			
0.8691	55619.92	3.0460	3.0459	-0.1403	27.64	1.90	-1.500			
0.8695	55646.89	3.0430	3.0430	-0.1392	27.65	1.91	-1.500			
0.8699	55673.41	3.0400	3.0400	-0.1379	27.66	1.92	-1.500			
0.8703	55699.80	3.0370	3.0370	-0.1370	27.66	1.92	-1.500			
0.8707	55726.11	3.0340	3.0340	-0.1367	27.67	1.93	-1.500			
0.8711	55752.07	3.0310	3.0311	-0.1355	27.67	1.93	-1.500			
0.8715	55778.04	3.0280	3.0279	-0.1350	27.68	1.94	-1.500			
0.8719	55804.07	3.0250	3.0250	-0.1340	27.68	1.94	-1.500			
0.8723	55829.62	3.0220	3.0220	-0.1331	27.69	1.95	-1.500			
0.8727	55855.20	3.0190	3.0190	-0.1328	27.70	1.96	-1.500			
0.8731	55880.61	3.0160	3.0160	-0.1319	27.70	1.96	-1.500			
0.8735	55905.62	3.0130	3.0130	-0.1320	27.71	1.97	-1.500			
0.8739	55930.63	3.0100	3.0100	-0.1318	27.71	1.97	-1.500			
0.8743	55955.82	3.0070	3.0071	-0.1326	27.72	1.98	-1.500			
0.8747	55981.37	3.0040	3.0039	-0.1337	27.72	1.98	-1.500			
0.8751	56007.17	3.0010	3.0010	-0.1352	27.73	1.99	-1.501			
