Ah_balance (normalized)	Ah_balance (mAh)	Voltage - fit (V)	Voltage -  interpolate (V)	dQ/dV (1/V)	Temperature (°C)	Temperature - diff (°C)	Current (C)	R_DC 0ms (mOhm)	R_DC 50ms (mOhm)	R_DC 50 ms PEC (mOhm)
0.1853	11856.24	3.9290	3.9289	-0.0983	25.78	-0.02	-1.500			
0.1856	11878.05	3.9260	3.9260	-0.1249	25.78	-0.02	-1.500			
0.1860	11904.21	3.9230	3.9229	-0.1476	25.78	-0.02	-1.500			
0.1865	11934.62	3.9200	3.9199	-0.1707	25.78	-0.02	-1.500			
0.1870	11969.47	3.9170	3.9171	-0.1947	25.78	-0.02	-1.500			
0.1876	12009.19	3.9140	3.9138	-0.2178	25.78	-0.02	-1.500			
0.1883	12053.39	3.9110	3.9110	-0.2414	25.79	-0.01	-1.500			
0.1891	12102.41	3.9080	3.9080	-0.2630	25.79	-0.01	-1.500			
0.1899	12155.09	3.9050	3.9050	-0.2844	25.79	-0.01	-1.500			
0.1908	12212.07	3.9020	3.9021	-0.3072	25.79	-0.01	-1.500			
0.1918	12273.00	3.8990	3.8990	-0.3271	25.79	-0.01	-1.500			
0.1928	12337.31	3.8960	3.8960	-0.3495	25.79	-0.01	-1.500			
0.1939	12406.42	3.8930	3.8930	-0.3706	25.79	-0.01	-1.500			
0.1950	12479.52	3.8900	3.8900	-0.3922	25.79	-0.01	-1.500			
0.1962	12558.11	3.8870	3.8870	-0.4128	25.79	-0.01	-1.500			
0.1975	12639.40	3.8840	3.8840	-0.4308	25.79	-0.01	-1.500			
0.1988	12724.34	3.8810	3.8810	-0.4485	25.79	-0.01	-1.500			
0.2002	12812.57	3.8780	3.8780	-0.4650	25.79	-0.01	-1.500			
0.2016	12902.58	3.8750	3.8750	-0.4815	25.80	-0.00	-1.500			
0.2031	12997.06	3.8720	3.8720	-0.4989	25.80	-0.00	-1.500			
0.2046	13094.89	3.8690	3.8689	-0.5117	25.80	-0.00	-1.500			
0.2062	13195.53	3.8660	3.8660	-0.5229	25.80	-0.00	-1.500			
0.2078	13298.41	3.8630	3.8630	-0.5327	25.80	0.00	-1.500			
0.2094	13401.44	3.8600	3.8600	-0.5397	25.80	0.00	-1.500			
0.2110	13505.41	3.8570	3.8570	-0.5475	25.80	0.00	-1.500			
0.2127	13610.58	3.8540	3.8540	-0.5539	25.80	0.00	-1.500			
0.2143	13717.39	3.8510	3.8510	-0.5626	25.81	0.01	-1.500			
0.2160	13826.54	3.8480	3.8480	-0.5729	25.81	0.01	-1.500			
0.2178	13938.92	3.8450	3.8450	-0.5797	25.81	0.01	-1.500			
0.2195	14050.25	3.8420	3.8420	-0.5858	25.81	0.01	-1.500			
0.2213	14163.32	3.8390	3.8390	-0.5914	25.81	0.01	-1.500			
0.2231	14277.06	3.8360	3.8360	-0.5964	25.81	0.01	-1.500			
0.2249	14392.51	3.8330	3.8330	-0.6018	25.81	0.01	-1.500			
0.2267	14508.54	3.8300	3.8300	-0.6057	25.82	0.02	-1.500			
0.2285	14625.32	3.8270	3.8270	-0.6089	25.82	0.02	-1.500			
0.2304	14743.34	3.8240	3.8240	-0.6152	25.82	0.02	-1.500			
0.2322	14861.28	3.8210	3.8210	-0.6151	25.82	0.02	-1.500			
0.2341	14979.64	3.8180	3.8179	-0.6171	25.82	0.02	-1.500			
0.2359	15098.60	3.8150	3.8151	-0.6186	25.83	0.03	-1.500			
0.2378	15217.99	3.8120	3.8120	-0.6199	25.83	0.03	-1.500			
0.2396	15336.73	3.8090	3.8090	-0.6225	25.83	0.03	-1.500			
0.2415	15456.14	3.8060	3.8061	-0.6258	25.84	0.04	-1.500			
0.2434	15575.85	3.8030	3.8029	-0.6257	25.84	0.04	-1.500			
0.2453	15696.77	3.8000	3.8000	-0.6297	25.84	0.04	-1.500			
0.2471	15817.36	3.7970	3.7971	-0.6336	25.84	0.04	-1.500			
0.2491	15939.41	3.7940	3.7940	-0.6370	25.85	0.05	-1.500			
0.2510	16063.21	3.7910	3.7909	-0.6390	25.85	0.05	-1.500			
0.2529	16185.74	3.7880	3.7880	-0.6395	25.85	0.05	-1.500			
0.2548	16308.37	3.7850	3.7851	-0.6416	25.86	0.06	-1.500			
0.2568	16432.11	3.7820	3.7821	-0.6464	25.86	0.06	-1.500			
0.2587	16555.65	3.7790	3.7789	-0.6486	25.86	0.06	-1.500			
0.2606	16681.00	3.7760	3.7760	-0.6500	25.87	0.07	-1.500			
0.2626	16806.55	3.7730	3.7731	-0.6522	25.87	0.07	-1.500			
0.2646	16932.79	3.7700	3.7699	-0.6594	25.88	0.08	-1.500			
0.2665	17058.94	3.7670	3.7670	-0.6598	25.88	0.08	-1.500			
0.2685	17184.13	3.7640	3.7639	-0.6620	25.89	0.09	-1.500			
0.2705	17311.70	3.7610	3.7610	-0.6645	25.89	0.09	-1.500			
0.2725	17440.10	3.7580	3.7580	-0.6689	25.90	0.10	-1.500			
0.2745	17568.42	3.7550	3.7551	-0.6796	25.90	0.10	-1.500			
0.2766	17700.55	3.7520	3.7520	-0.6827	25.91	0.11	-1.500			
0.2786	17831.56	3.7490	3.7489	-0.6857	25.91	0.11	-1.500			
0.2807	17964.21	3.7460	3.7460	-0.6923	25.92	0.12	-1.500			
0.2828	18097.36	3.7430	3.7430	-0.6962	25.92	0.12	-1.500			
0.2849	18232.10	3.7400	3.7400	-0.7009	25.93	0.13	-1.500			
0.2870	18367.05	3.7370	3.7370	-0.7023	25.93	0.13	-1.500			
0.2891	18500.43	3.7340	3.7341	-0.7062	25.93	0.13	-1.500			
0.2912	18637.62	3.7310	3.7310	-0.7169	25.94	0.14	-1.500			
0.2934	18775.39	3.7280	3.7280	-0.7199	25.94	0.14	-1.500			
0.2955	18914.22	3.7250	3.7249	-0.7241	25.94	0.14	-1.500			
0.2977	19053.93	3.7220	3.7221	-0.7296	25.95	0.15	-1.500			
0.2999	19194.31	3.7190	3.7190	-0.7377	25.95	0.15	-1.500			
0.3021	19336.59	3.7160	3.7160	-0.7457	25.95	0.15	-1.500			
0.3044	19480.05	3.7130	3.7129	-0.7508	25.96	0.16	-1.500			
0.3066	19624.52	3.7100	3.7101	-0.7566	25.96	0.16	-1.500			
0.3089	19771.19	3.7070	3.7070	-0.7687	25.97	0.17	-1.500			
0.3112	19919.65	3.7040	3.7040	-0.7778	25.97	0.17	-1.500			
0.3136	20069.91	3.7010	3.7009	-0.7828	25.98	0.18	-1.500			
0.3159	20219.75	3.6980	3.6981	-0.7903	25.98	0.18	-1.500			
0.3183	20373.13	3.6950	3.6950	-0.7971	25.99	0.19	-1.500			
0.3207	20527.47	3.6920	3.6920	-0.8035	25.99	0.19	-1.500			
0.3231	20681.20	3.6890	3.6890	-0.8147	26.00	0.20	-1.500			
0.3256	20837.81	3.6860	3.6860	-0.8203	26.01	0.21	-1.500			
0.3281	20996.99	3.6830	3.6829	-0.8274	26.01	0.21	-1.500			
0.3306	21156.53	3.6800	3.6799	-0.8387	26.02	0.22	-1.500			
0.3331	21317.76	3.6770	3.6770	-0.8481	26.02	0.22	-1.500			
0.3357	21482.58	3.6740	3.6739	-0.8565	26.03	0.23	-1.500			
0.3382	21647.64	3.6710	3.6710	-0.8648	26.03	0.23	-1.500			
0.3408	21813.40	3.6680	3.6681	-0.8699	26.03	0.23	-1.500			
0.3435	21983.87	3.6650	3.6650	-0.8790	26.04	0.24	-1.500			
0.3461	22152.34	3.6620	3.6620	-0.8923	26.04	0.24	-1.500			
0.3488	22323.45	3.6590	3.6590	-0.9004	26.05	0.25	-1.500			
0.3515	22496.50	3.6560	3.6560	-0.9130	26.05	0.25	-1.500			
0.3543	22673.48	3.6530	3.6531	-0.9277	26.06	0.26	-1.500			
0.3571	22853.38	3.6500	3.6501	-0.9352	26.06	0.26	-1.500			
0.3599	23034.31	3.6470	3.6470	-0.9470	26.06	0.26	-1.500			
0.3628	23218.11	3.6440	3.6440	-0.9580	26.06	0.26	-1.500			
0.3656	23401.06	3.6410	3.6409	-0.9659	26.07	0.27	-1.500			
0.3686	23588.34	3.6380	3.6380	-0.9765	26.07	0.27	-1.500			
0.3715	23776.25	3.6350	3.6351	-0.9861	26.07	0.27	-1.500			
0.3745	23966.76	3.6320	3.6319	-0.9983	26.07	0.27	-1.500			
0.3775	24160.23	3.6290	3.6290	-1.0110	26.08	0.28	-1.500			
0.3805	24352.58	3.6260	3.6260	-1.0226	26.08	0.28	-1.500			
0.3836	24550.75	3.6230	3.6229	-1.0361	26.08	0.28	-1.500			
0.3867	24751.62	3.6200	3.6200	-1.0496	26.09	0.29	-1.500			
0.3899	24955.33	3.6170	3.6170	-1.0641	26.09	0.29	-1.500			
0.3932	25162.33	3.6140	3.6140	-1.0697	26.10	0.30	-1.500			
0.3964	25367.64	3.6110	3.6110	-1.0876	26.10	0.30	-1.500			
0.3996	25575.94	3.6080	3.6080	-1.1016	26.11	0.31	-1.500			
0.4030	25789.23	3.6050	3.6049	-1.1141	26.11	0.31	-1.500			
0.4063	26005.33	3.6020	3.6021	-1.1288	26.12	0.32	-1.500			
0.4097	26222.81	3.5990	3.5990	-1.1431	26.12	0.32	-1.500			
0.4132	26444.39	3.5960	3.5960	-1.1600	26.13	0.33	-1.500			
0.4167	26669.00	3.5930	3.5929	-1.1765	26.13	0.33	-1.500			
0.4202	26893.24	3.5900	3.5900	-1.1862	26.13	0.33	-1.500			
0.4238	27124.19	3.5870	3.5870	-1.2072	26.13	0.33	-1.500			
0.4275	27358.29	3.5840	3.5840	-1.2276	26.14	0.34	-1.500			
0.4312	27596.29	3.5810	3.5810	-1.2456	26.14	0.34	-1.500			
0.4350	27836.86	3.5780	3.5779	-1.2603	26.14	0.34	-1.500			
0.4388	28080.59	3.5750	3.5750	-1.2743	26.15	0.35	-1.500			
0.4426	28326.44	3.5720	3.5720	-1.2926	26.15	0.35	-1.500			
0.4465	28576.90	3.5690	3.5690	-1.3081	26.16	0.36	-1.500			
0.4505	28829.23	3.5660	3.5660	-1.3251	26.16	0.36	-1.500			
0.4545	29084.92	3.5630	3.5630	-1.3447	26.17	0.37	-1.500			
0.4585	29345.59	3.5600	3.5600	-1.3628	26.17	0.37	-1.500			
0.4626	29609.11	3.5570	3.5569	-1.3800	26.18	0.38	-1.500			
0.4668	29874.42	3.5540	3.5541	-1.4035	26.18	0.38	-1.500			
0.4710	30145.98	3.5510	3.5510	-1.4190	26.19	0.39	-1.500			
0.4753	30420.31	3.5480	3.5479	-1.4399	26.19	0.39	-1.500			
0.4797	30699.59	3.5450	3.5450	-1.4536	26.20	0.40	-1.500			
0.4841	30979.91	3.5420	3.5420	-1.4738	26.20	0.40	-1.500			
0.4885	31266.87	3.5390	3.5390	-1.4942	26.21	0.41	-1.500			
0.4930	31553.25	3.5360	3.5360	-1.5231	26.21	0.41	-1.500			
0.4976	31843.79	3.5330	3.5330	-1.5485	26.21	0.41	-1.500			
0.5023	32145.94	3.5300	3.5300	-1.5864	26.22	0.42	-1.500			
0.5071	32456.21	3.5270	3.5271	-1.6030	26.22	0.42	-1.500			
0.5120	32769.30	3.5240	3.5241	-1.6151	26.23	0.43	-1.500	0.369	0.542	
0.5169	33083.61	3.5210	3.5211	-1.6227	26.24	0.44	-1.500			
0.5218	33396.24	3.5180	3.5180	-1.6237	26.26	0.46	-1.500			
0.5266	33705.28	3.5150	3.5150	-1.6223	26.27	0.47	-1.500			
0.5315	34015.77	3.5120	3.5120	-1.6247	26.28	0.48	-1.500			
0.5363	34326.20	3.5090	3.5090	-1.6301	26.29	0.49	-1.500			
0.5413	34640.16	3.5060	3.5059	-1.6533	26.30	0.50	-1.500			
0.5463	34960.68	3.5030	3.5030	-1.6611	26.31	0.51	-1.500			
0.5513	35281.87	3.5000	3.4999	-1.6647	26.33	0.53	-1.500			
0.5563	35602.01	3.4970	3.4971	-1.6664	26.34	0.54	-1.500			
0.5613	35923.35	3.4940	3.4940	-1.6671	26.35	0.55	-1.500			
0.5663	36244.21	3.4910	3.4909	-1.6649	26.36	0.56	-1.500			
0.5713	36563.75	3.4880	3.4880	-1.6538	26.37	0.57	-1.500			
0.5762	36878.99	3.4850	3.4850	-1.6504	26.38	0.58	-1.500			
0.5812	37198.15	3.4820	3.4820	-1.6472	26.39	0.59	-1.500			
0.5861	37512.82	3.4790	3.4789	-1.6385	26.40	0.60	-1.500			
0.5910	37825.81	3.4760	3.4760	-1.6281	26.42	0.62	-1.500			
0.5959	38138.51	3.4730	3.4730	-1.6152	26.43	0.63	-1.500			
0.6008	38451.60	3.4700	3.4700	-1.6025	26.44	0.64	-1.500			
0.6056	38757.31	3.4670	3.4671	-1.5773	26.46	0.66	-1.500			
0.6102	39055.30	3.4640	3.4639	-1.5552	26.47	0.67	-1.500			
0.6149	39350.68	3.4610	3.4610	-1.5381	26.49	0.69	-1.500			
0.6194	39644.52	3.4580	3.4580	-1.5218	26.50	0.70	-1.500			
0.6240	39933.87	3.4550	3.4550	-1.5051	26.52	0.72	-1.500			
0.6285	40225.27	3.4520	3.4520	-1.4943	26.53	0.73	-1.500			
0.6330	40511.40	3.4490	3.4491	-1.4751	26.54	0.74	-1.500			
0.6374	40793.37	3.4460	3.4459	-1.4516	26.56	0.76	-1.500			
0.6417	41067.52	3.4430	3.4430	-1.4323	26.58	0.78	-1.500			
0.6459	41337.90	3.4400	3.4401	-1.4100	26.59	0.79	-1.500			
0.6502	41609.90	3.4370	3.4370	-1.4015	26.61	0.81	-1.500			
0.6543	41877.82	3.4340	3.4339	-1.3814	26.62	0.82	-1.500			
0.6585	42142.22	3.4310	3.4311	-1.3643	26.64	0.84	-1.500			
0.6625	42402.55	3.4280	3.4280	-1.3493	26.66	0.86	-1.500			
0.6665	42658.76	3.4250	3.4250	-1.3330	26.67	0.87	-1.500			
0.6705	42910.88	3.4220	3.4220	-1.3081	26.69	0.89	-1.500			
0.6744	43164.27	3.4190	3.4190	-1.2843	26.71	0.91	-1.500			
0.6783	43410.85	3.4160	3.4159	-1.2586	26.73	0.93	-1.500			
0.6820	43649.17	3.4130	3.4132	-1.2360	26.74	0.94	-1.500			
0.6857	43882.52	3.4100	3.4100	-1.2105	26.76	0.96	-1.500			
0.6892	44111.20	3.4070	3.4069	-1.1816	26.78	0.98	-1.500			
0.6927	44334.86	3.4040	3.4040	-1.1584	26.79	0.99	-1.500			
0.6962	44556.59	3.4010	3.4010	-1.1363	26.81	1.01	-1.500			
0.6996	44774.00	3.3980	3.3978	-1.1103	26.82	1.02	-1.500			
0.7029	44986.45	3.3950	3.3951	-1.0779	26.84	1.04	-1.500			
0.7061	45189.53	3.3920	3.3921	-1.0389	26.84	1.04	-1.500			
0.7092	45386.59	3.3890	3.3890	-1.0081	26.85	1.05	-1.500			
0.7122	45577.87	3.3860	3.3860	-0.9752	26.87	1.07	-1.500			
0.7149	45756.61	3.3830	3.3830	-0.9434	26.89	1.09	-1.500			
0.7177	45935.99	3.3800	3.3801	-0.9155	26.90	1.10	-1.500			
0.7205	46109.74	3.3770	3.3769	-0.8891	26.92	1.12	-1.500			
0.7231	46278.17	3.3740	3.3739	-0.8629	26.93	1.13	-1.500			
0.7256	46441.31	3.3710	3.3710	-0.8386	26.95	1.15	-1.500			
0.7281	46599.25	3.3680	3.3680	-0.8096	26.96	1.16	-1.500			
0.7305	46751.73	3.3650	3.3650	-0.7879	26.97	1.17	-1.500			
0.7328	46899.04	3.3620	3.3620	-0.7631	26.98	1.18	-1.500			
0.7351	47045.37	3.3590	3.3590	-0.7469	26.99	1.19	-1.500			
0.7373	47186.76	3.3560	3.3560	-0.7243	27.00	1.20	-1.500			
0.7394	47323.50	3.3530	3.3530	-0.7056	27.01	1.21	-1.500			
0.7415	47456.84	3.3500	3.3500	-0.6869	27.01	1.21	-1.500			
0.7436	47587.53	3.3470	3.3470	-0.6695	27.02	1.22	-1.500			
0.7455	47713.29	3.3440	3.3440	-0.6488	27.03	1.23	-1.500			
0.7474	47836.62	3.3410	3.3410	-0.6324	27.04	1.24	-1.500			
0.7493	47956.19	3.3380	3.3380	-0.6152	27.05	1.25	-1.500			
0.7511	48072.37	3.3350	3.3349	-0.5998	27.06	1.26	-1.500			
0.7529	48185.56	3.3320	3.3320	-0.5809	27.07	1.27	-1.500			
0.7546	48295.47	3.3290	3.3290	-0.5650	27.08	1.28	-1.500			
0.7563	48402.35	3.3260	3.3261	-0.5504	27.09	1.29	-1.500			
0.7579	48506.59	3.3230	3.3230	-0.5375	27.10	1.30	-1.500			
0.7595	48608.16	3.3200	3.3200	-0.5235	27.11	1.31	-1.500			
0.7611	48707.20	3.3170	3.3170	-0.5110	27.11	1.31	-1.500			
0.7626	48803.32	3.3140	3.3141	-0.4997	27.12	1.32	-1.500			
0.7640	48899.10	3.3110	3.3110	-0.4891	27.13	1.33	-1.500			
0.7655	48991.43	3.3080	3.3079	-0.4771	27.14	1.34	-1.500			
0.7669	49081.52	3.3050	3.3051	-0.4646	27.15	1.35	-1.500			
0.7683	49169.55	3.3020	3.3020	-0.4537	27.15	1.35	-1.500			
0.7696	49255.86	3.2990	3.2990	-0.4438	27.16	1.36	-1.500			
0.7709	49340.14	3.2960	3.2959	-0.4324	27.17	1.37	-1.500			
0.7722	49421.60	3.2930	3.2931	-0.4212	27.18	1.38	-1.500			
0.7735	49501.67	3.2900	3.2900	-0.4134	27.18	1.38	-1.500			
0.7747	49579.99	3.2870	3.2871	-0.4026	27.19	1.39	-1.500			
0.7759	49656.76	3.2840	3.2840	-0.3931	27.20	1.40	-1.500			
0.7770	49731.01	3.2810	3.2810	-0.3829	27.20	1.40	-1.500			
0.7782	49803.77	3.2780	3.2780	-0.3724	27.21	1.41	-1.500			
0.7793	49873.94	3.2750	3.2750	-0.3633	27.21	1.41	-1.500			
0.7803	49941.94	3.2720	3.2720	-0.3553	27.21	1.41	-1.500			
0.7814	50008.65	3.2690	3.2691	-0.3471	27.22	1.42	-1.500			
0.7824	50075.20	3.2660	3.2659	-0.3422	27.23	1.43	-1.500			
0.7834	50140.53	3.2630	3.2630	-0.3362	27.23	1.43	-1.500			
0.7845	50204.95	3.2600	3.2600	-0.3290	27.24	1.44	-1.500			
0.7854	50267.73	3.2570	3.2570	-0.3215	27.25	1.45	-1.500			
0.7864	50328.36	3.2540	3.2540	-0.3139	27.25	1.45	-1.500			
0.7873	50387.51	3.2510	3.2510	-0.3077	27.26	1.46	-1.500			
0.7882	50446.12	3.2480	3.2479	-0.3002	27.27	1.47	-1.500			
0.7891	50503.01	3.2450	3.2450	-0.2935	27.27	1.47	-1.500			
0.7900	50558.78	3.2420	3.2420	-0.2888	27.28	1.48	-1.500			
0.7908	50613.76	3.2390	3.2391	-0.2837	27.29	1.49	-1.500			
0.7917	50667.12	3.2360	3.2359	-0.2790	27.29	1.49	-1.500			
0.7925	50720.17	3.2330	3.2331	-0.2740	27.30	1.50	-1.500			
0.7933	50772.06	3.2300	3.2299	-0.2701	27.30	1.50	-1.500			
0.7941	50824.43	3.2270	3.2269	-0.2675	27.31	1.51	-1.500			
0.7949	50875.59	3.2240	3.2241	-0.2633	27.32	1.52	-1.500			
0.7957	50925.48	3.2210	3.2210	-0.2590	27.32	1.52	-1.500			
0.7965	50975.25	3.2180	3.2181	-0.2550	27.33	1.53	-1.500			
0.7972	51023.47	3.2150	3.2151	-0.2506	27.33	1.53	-1.500			
0.7980	51070.57	3.2120	3.2119	-0.2456	27.34	1.54	-1.500			
0.7987	51117.66	3.2090	3.2091	-0.2433	27.34	1.54	-1.500			
0.7994	51163.69	3.2060	3.2060	-0.2392	27.35	1.55	-1.500			
0.8002	51209.76	3.2030	3.2030	-0.2359	27.35	1.55	-1.500			
0.8009	51254.58	3.2000	3.2000	-0.2321	27.36	1.56	-1.500			
0.8015	51298.54	3.1970	3.1970	-0.2285	27.36	1.56	-1.500			
0.8022	51342.31	3.1940	3.1941	-0.2253	27.37	1.57	-1.500			
0.8029	51384.72	3.1910	3.1910	-0.2226	27.37	1.57	-1.500			
0.8036	51427.21	3.1880	3.1880	-0.2196	27.38	1.58	-1.500			
0.8042	51469.13	3.1850	3.1849	-0.2167	27.38	1.58	-1.500			
0.8048	51510.34	3.1820	3.1821	-0.2147	27.39	1.59	-1.500			
0.8055	51551.58	3.1790	3.1791	-0.2129	27.39	1.59	-1.500			
0.8061	51592.31	3.1760	3.1760	-0.2097	27.40	1.60	-1.500			
0.8068	51632.34	3.1730	3.1729	-0.2068	27.40	1.60	-1.500			
0.8074	51671.66	3.1700	3.1701	-0.2041	27.41	1.61	-1.500			
0.8080	51710.41	3.1670	3.1671	-0.2012	27.41	1.61	-1.500			
0.8086	51748.98	3.1640	3.1640	-0.1991	27.42	1.62	-1.500			
0.8092	51786.72	3.1610	3.1610	-0.1970	27.43	1.63	-1.500			
0.8097	51823.93	3.1580	3.1581	-0.1943	27.44	1.64	-1.500			
0.8103	51861.15	3.1550	3.1550	-0.1933	27.44	1.64	-1.500			
0.8109	51898.29	3.1520	3.1520	-0.1925	27.45	1.65	-1.500			
0.8115	51935.27	3.1490	3.1491	-0.1907	27.45	1.65	-1.500			
0.8121	51971.84	3.1460	3.1460	-0.1890	27.46	1.66	-1.500			
0.8126	52007.94	3.1430	3.1429	-0.1870	27.47	1.67	-1.500			
0.8132	52043.84	3.1400	3.1400	-0.1852	27.47	1.67	-1.500			
0.8137	52079.16	3.1370	3.1370	-0.1828	27.48	1.68	-1.500			
0.8143	52113.86	3.1340	3.1339	-0.1808	27.49	1.69	-1.500			
0.8148	52148.40	3.1310	3.1311	-0.1790	27.49	1.69	-1.500			
0.8154	52182.43	3.1280	3.1280	-0.1771	27.50	1.70	-1.500			
0.8159	52216.15	3.1250	3.1250	-0.1764	27.51	1.71	-1.500			
0.8164	52249.94	3.1220	3.1220	-0.1749	27.51	1.71	-1.500			
0.8169	52283.43	3.1190	3.1189	-0.1740	27.52	1.72	-1.500			
0.8175	52316.81	3.1160	3.1160	-0.1725	27.52	1.72	-1.500			
0.8180	52349.94	3.1130	3.1131	-0.1714	27.53	1.73	-1.500			
0.8185	52382.68	3.1100	3.1101	-0.1699	27.53	1.73	-1.500			
0.8190	52415.14	3.1070	3.1069	-0.1683	27.54	1.74	-1.500			
0.8195	52447.33	3.1040	3.1040	-0.1671	27.55	1.75	-1.500			
0.8200	52479.16	3.1010	3.1010	-0.1650	27.55	1.75	-1.500			
0.8205	52510.75	3.0980	3.0980	-0.1641	27.56	1.76	-1.500			
0.8210	52542.13	3.0950	3.0950	-0.1627	27.56	1.76	-1.500			
0.8215	52573.11	3.0920	3.0921	-0.1621	27.57	1.77	-1.500			
0.8219	52604.21	3.0890	3.0890	-0.1604	27.57	1.77	-1.500			
0.8224	52634.91	3.0860	3.0859	-0.1593	27.58	1.78	-1.500			
0.8229	52665.41	3.0830	3.0831	-0.1576	27.59	1.79	-1.500			
0.8234	52695.51	3.0800	3.0801	-0.1566	27.59	1.79	-1.500			
0.8238	52725.44	3.0770	3.0770	-0.1560	27.60	1.80	-1.500			
0.8243	52754.98	3.0740	3.0740	-0.1544	27.60	1.80	-1.500			
0.8248	52784.66	3.0710	3.0709	-0.1534	27.61	1.81	-1.500			
0.8252	52813.87	3.0680	3.0680	-0.1522	27.61	1.81	-1.500			
0.8257	52843.28	3.0650	3.0650	-0.1519	27.62	1.82	-1.500			
0.8261	52872.34	3.0620	3.0621	-0.1508	27.62	1.82	-1.500			
0.8266	52901.17	3.0590	3.0590	-0.1504	27.63	1.83	-1.500			
0.8270	52929.92	3.0560	3.0560	-0.1491	27.63	1.83	-1.500			
0.8275	52958.45	3.0530	3.0530	-0.1481	27.64	1.84	-1.500			
0.8279	52986.81	3.0500	3.0500	-0.1474	27.64	1.84	-1.500			
0.8284	53015.26	3.0470	3.0471	-0.1463	27.65	1.85	-1.500			
0.8288	53043.27	3.0440	3.0440	-0.1452	27.66	1.86	-1.500			
0.8292	53070.91	3.0410	3.0409	-0.1440	27.66	1.86	-1.500			
0.8297	53098.46	3.0380	3.0381	-0.1429	27.67	1.87	-1.500			
0.8301	53125.58	3.0350	3.0350	-0.1420	27.67	1.87	-1.500			
0.8305	53152.91	3.0320	3.0320	-0.1412	27.68	1.88	-1.500			
0.8309	53179.90	3.0290	3.0290	-0.1403	27.68	1.88	-1.500			
0.8314	53206.73	3.0260	3.0260	-0.1396	27.69	1.89	-1.500			
0.8318	53233.52	3.0230	3.0230	-0.1389	27.69	1.89	-1.500			
0.8322	53260.10	3.0200	3.0200	-0.1380	27.70	1.90	-1.500			
0.8326	53286.52	3.0170	3.0171	-0.1371	27.70	1.90	-1.500			
0.8330	53312.53	3.0140	3.0140	-0.1371	27.71	1.91	-1.500			
0.8334	53338.64	3.0110	3.0109	-0.1368	27.71	1.91	-1.500			
0.8338	53364.80	3.0080	3.0080	-0.1370	27.72	1.92	-1.500			
0.8342	53391.16	3.0050	3.0049	-0.1375	27.72	1.92	-1.500			
0.8347	53417.77	3.0020	3.0020	-0.1419	27.73	1.93	-1.500			
