Ah_balance (normalized)	Ah_balance (mAh)	Voltage - fit (V)	Voltage -  interpolate (V)	dQ/dV (1/V)	Temperature (°C)	Temperature - diff (°C)	Current (C)	R_DC 0ms (mOhm)	R_DC 50ms (mOhm)	R_DC 50 ms PEC (mOhm)
0.1845	11809.85	3.9290	3.9288	-0.0850	25.64	-0.00	-1.500			
0.1848	11828.87	3.9260	3.9260	-0.1132	25.64	-0.00	-1.500			
0.1852	11853.54	3.9230	3.9228	-0.1410	25.64	-0.00	-1.500			
0.1857	11883.58	3.9200	3.9200	-0.1672	25.64	-0.00	-1.500			
0.1862	11918.33	3.9170	3.9172	-0.1921	25.64	-0.00	-1.500			
0.1869	11958.70	3.9140	3.9139	-0.2168	25.64	-0.00	-1.500			
0.1875	12002.40	3.9110	3.9111	-0.2394	25.64	-0.00	-1.500			
0.1883	12050.58	3.9080	3.9080	-0.2618	25.64	-0.00	-1.500			
0.1891	12103.22	3.9050	3.9050	-0.2835	25.64	-0.00	-1.500			
0.1900	12159.80	3.9020	3.9020	-0.3061	25.64	-0.00	-1.500			
0.1909	12220.79	3.8990	3.8990	-0.3270	25.64	-0.00	-1.500			
0.1920	12286.19	3.8960	3.8960	-0.3470	25.64	-0.00	-1.500			
0.1930	12354.75	3.8930	3.8931	-0.3661	25.64	0.00	-1.500			
0.1942	12426.89	3.8900	3.8900	-0.3856	25.64	0.00	-1.500			
0.1954	12502.44	3.8870	3.8870	-0.4060	25.64	0.00	-1.500			
0.1966	12582.07	3.8840	3.8839	-0.4249	25.64	0.00	-1.500			
0.1979	12665.99	3.8810	3.8810	-0.4436	25.64	0.00	-1.500			
0.1993	12753.31	3.8780	3.8780	-0.4600	25.64	0.00	-1.500			
0.2007	12844.20	3.8750	3.8751	-0.4781	25.64	0.00	-1.500			
0.2021	12937.52	3.8720	3.8720	-0.4928	25.64	0.00	-1.500			
0.2036	13033.57	3.8690	3.8690	-0.5056	25.64	0.00	-1.500			
0.2052	13131.65	3.8660	3.8661	-0.5204	25.64	0.00	-1.500			
0.2068	13233.77	3.8630	3.8630	-0.5314	25.65	0.01	-1.500			
0.2084	13337.08	3.8600	3.8600	-0.5421	25.65	0.01	-1.500			
0.2100	13442.62	3.8570	3.8570	-0.5518	25.65	0.01	-1.500			
0.2117	13549.03	3.8540	3.8540	-0.5593	25.65	0.01	-1.500			
0.2134	13657.66	3.8510	3.8510	-0.5674	25.65	0.01	-1.500			
0.2151	13767.45	3.8480	3.8480	-0.5746	25.65	0.01	-1.500			
0.2168	13877.52	3.8450	3.8451	-0.5819	25.65	0.01	-1.500			
0.2186	13991.01	3.8420	3.8420	-0.5905	25.65	0.01	-1.500			
0.2204	14105.36	3.8390	3.8390	-0.5957	25.65	0.01	-1.500			
0.2222	14220.79	3.8360	3.8360	-0.6004	25.66	0.02	-1.500			
0.2240	14336.91	3.8330	3.8331	-0.6039	25.66	0.02	-1.500			
0.2258	14453.09	3.8300	3.8300	-0.6072	25.66	0.02	-1.500			
0.2276	14569.41	3.8270	3.8270	-0.6089	25.67	0.03	-1.500			
0.2295	14686.60	3.8240	3.8240	-0.6092	25.67	0.03	-1.500			
0.2313	14803.64	3.8210	3.8210	-0.6120	25.67	0.03	-1.500			
0.2331	14921.02	3.8180	3.8179	-0.6148	25.67	0.03	-1.500			
0.2350	15039.24	3.8150	3.8151	-0.6183	25.68	0.04	-1.500			
0.2368	15158.38	3.8120	3.8119	-0.6210	25.68	0.04	-1.500			
0.2387	15278.18	3.8090	3.8090	-0.6230	25.68	0.04	-1.500			
0.2406	15398.47	3.8060	3.8060	-0.6272	25.69	0.05	-1.500			
0.2425	15519.31	3.8030	3.8030	-0.6304	25.69	0.05	-1.500			
0.2444	15639.44	3.8000	3.8000	-0.6336	25.69	0.05	-1.500			
0.2463	15760.93	3.7970	3.7970	-0.6348	25.70	0.06	-1.500			
0.2482	15883.88	3.7940	3.7940	-0.6360	25.70	0.06	-1.500			
0.2501	16006.69	3.7910	3.7910	-0.6386	25.71	0.07	-1.500			
0.2520	16130.08	3.7880	3.7881	-0.6393	25.71	0.07	-1.500			
0.2539	16251.95	3.7850	3.7850	-0.6401	25.72	0.08	-1.500			
0.2558	16374.14	3.7820	3.7820	-0.6434	25.72	0.08	-1.500			
0.2578	16497.71	3.7790	3.7790	-0.6466	25.73	0.09	-1.500			
0.2597	16622.77	3.7760	3.7759	-0.6518	25.73	0.09	-1.500			
0.2617	16748.54	3.7730	3.7731	-0.6554	25.74	0.10	-1.500			
0.2637	16875.32	3.7700	3.7700	-0.6572	25.74	0.10	-1.500			
0.2656	17001.57	3.7670	3.7670	-0.6618	25.74	0.10	-1.500			
0.2676	17127.41	3.7640	3.7640	-0.6648	25.75	0.11	-1.500			
0.2696	17255.64	3.7610	3.7610	-0.6690	25.75	0.11	-1.500			
0.2716	17385.19	3.7580	3.7580	-0.6744	25.76	0.12	-1.500			
0.2737	17515.04	3.7550	3.7551	-0.6761	25.76	0.12	-1.500			
0.2757	17645.34	3.7520	3.7520	-0.6798	25.77	0.13	-1.500			
0.2778	17776.23	3.7490	3.7490	-0.6856	25.77	0.13	-1.500			
0.2798	17907.38	3.7460	3.7458	-0.6898	25.77	0.13	-1.500			
0.2819	18039.61	3.7430	3.7430	-0.6953	25.78	0.14	-1.500			
0.2840	18174.81	3.7400	3.7400	-0.7009	25.78	0.14	-1.500			
0.2861	18310.91	3.7370	3.7370	-0.7051	25.79	0.15	-1.500			
0.2882	18447.02	3.7340	3.7340	-0.7086	25.79	0.15	-1.500			
0.2903	18582.25	3.7310	3.7310	-0.7122	25.80	0.16	-1.500			
0.2925	18718.57	3.7280	3.7279	-0.7179	25.80	0.16	-1.500			
0.2946	18855.65	3.7250	3.7250	-0.7257	25.80	0.16	-1.500			
0.2968	18995.70	3.7220	3.7221	-0.7358	25.81	0.17	-1.500			
0.2991	19139.84	3.7190	3.7189	-0.7411	25.82	0.18	-1.500			
0.3013	19282.41	3.7160	3.7160	-0.7477	25.82	0.18	-1.500			
0.3035	19425.92	3.7130	3.7131	-0.7555	25.83	0.19	-1.500			
0.3058	19571.48	3.7100	3.7099	-0.7628	25.84	0.20	-1.500			
0.3081	19718.28	3.7070	3.7069	-0.7700	25.84	0.20	-1.500			
0.3104	19866.90	3.7040	3.7040	-0.7793	25.85	0.21	-1.500			
0.3128	20017.96	3.7010	3.7011	-0.7889	25.86	0.22	-1.500			
0.3152	20171.47	3.6980	3.6980	-0.7960	25.86	0.22	-1.500			
0.3176	20324.73	3.6950	3.6950	-0.7971	25.87	0.23	-1.500			
0.3200	20477.49	3.6920	3.6920	-0.8056	25.87	0.23	-1.500			
0.3224	20632.30	3.6890	3.6890	-0.8109	25.88	0.24	-1.500			
0.3248	20787.77	3.6860	3.6860	-0.8204	25.88	0.24	-1.500			
0.3273	20945.50	3.6830	3.6830	-0.8322	25.89	0.25	-1.500			
0.3298	21107.09	3.6800	3.6800	-0.8432	25.89	0.25	-1.500			
0.3324	21271.05	3.6770	3.6770	-0.8519	25.90	0.26	-1.500			
0.3349	21436.50	3.6740	3.6740	-0.8684	25.90	0.26	-1.500			
0.3376	21604.94	3.6710	3.6710	-0.8719	25.91	0.27	-1.500			
0.3402	21774.84	3.6680	3.6678	-0.8776	25.91	0.27	-1.500			
0.3428	21941.86	3.6650	3.6654	-0.8840	25.92	0.28	-1.500			
0.3455	22111.61	3.6620	3.6620	-0.8873	25.92	0.28	-1.500			
0.3482	22282.09	3.6590	3.6589	-0.8946	25.93	0.29	-1.500			
0.3508	22453.45	3.6560	3.6560	-0.9005	25.93	0.29	-1.500			
0.3535	22626.38	3.6530	3.6531	-0.9167	25.94	0.30	-1.500			
0.3563	22803.12	3.6500	3.6500	-0.9316	25.94	0.30	-1.500			
0.3591	22984.44	3.6470	3.6470	-0.9448	25.95	0.31	-1.500			
0.3620	23166.59	3.6440	3.6439	-0.9576	25.95	0.31	-1.500			
0.3649	23354.55	3.6410	3.6410	-0.9706	25.96	0.32	-1.500			
0.3678	23541.56	3.6380	3.6381	-0.9794	25.96	0.32	-1.500			
0.3708	23730.16	3.6350	3.6350	-0.9895	25.97	0.33	-1.500			
0.3737	23919.98	3.6320	3.6320	-0.9966	25.97	0.33	-1.500			
0.3767	24110.21	3.6290	3.6289	-1.0086	25.98	0.34	-1.500			
0.3798	24305.49	3.6260	3.6260	-1.0245	25.98	0.34	-1.500			
0.3829	24502.91	3.6230	3.6230	-1.0383	25.99	0.35	-1.500			
0.3860	24706.33	3.6200	3.6199	-1.0575	26.00	0.36	-1.500			
0.3892	24909.46	3.6170	3.6170	-1.0683	26.00	0.36	-1.500			
0.3924	25116.13	3.6140	3.6140	-1.0778	26.01	0.37	-1.500			
0.3957	25324.67	3.6110	3.6110	-1.0918	26.02	0.38	-1.500			
0.3990	25534.91	3.6080	3.6080	-1.1030	26.02	0.38	-1.500			
0.4023	25747.00	3.6050	3.6050	-1.1165	26.03	0.39	-1.500			
0.4057	25961.87	3.6020	3.6020	-1.1329	26.04	0.40	-1.500			
0.4091	26180.82	3.5990	3.5990	-1.1479	26.04	0.40	-1.500			
0.4125	26403.13	3.5960	3.5960	-1.1627	26.05	0.41	-1.500			
0.4161	26628.73	3.5930	3.5930	-1.1784	26.06	0.42	-1.500			
0.4196	26856.32	3.5900	3.5899	-1.1871	26.06	0.42	-1.500			
0.4232	27084.05	3.5870	3.5871	-1.2045	26.07	0.43	-1.500			
0.4268	27315.89	3.5840	3.5840	-1.2225	26.07	0.43	-1.500			
0.4305	27550.34	3.5810	3.5810	-1.2429	26.08	0.44	-1.500			
0.4343	27792.52	3.5780	3.5779	-1.2642	26.08	0.44	-1.500			
0.4381	28038.21	3.5750	3.5750	-1.2809	26.08	0.44	-1.500			
0.4420	28286.20	3.5720	3.5720	-1.2989	26.09	0.45	-1.500			
0.4459	28539.07	3.5690	3.5691	-1.3179	26.09	0.45	-1.500			
0.4499	28792.36	3.5660	3.5659	-1.3279	26.10	0.46	-1.500			
0.4539	29046.48	3.5630	3.5630	-1.3484	26.11	0.47	-1.500			
0.4579	29307.95	3.5600	3.5600	-1.3660	26.11	0.47	-1.500			
0.4621	29572.92	3.5570	3.5569	-1.3879	26.12	0.48	-1.500			
0.4663	29840.89	3.5540	3.5540	-1.4065	26.13	0.49	-1.500			
0.4705	30111.57	3.5510	3.5510	-1.4257	26.14	0.50	-1.500			
0.4748	30387.59	3.5480	3.5480	-1.4466	26.14	0.50	-1.500			
0.4792	30667.27	3.5450	3.5450	-1.4725	26.15	0.51	-1.500			
0.4836	30951.97	3.5420	3.5420	-1.4905	26.16	0.52	-1.500			
0.4882	31245.51	3.5390	3.5389	-1.5141	26.17	0.53	-1.500			
0.4927	31534.83	3.5360	3.5362	-1.5383	26.18	0.54	-1.500			
0.4974	31833.35	3.5330	3.5330	-1.5531	26.19	0.55	-1.500			
0.5021	32134.38	3.5300	3.5300	-1.5696	26.20	0.56	-1.500			
0.5069	32438.57	3.5270	3.5269	-1.5794	26.21	0.57	-1.500			
0.5116	32744.62	3.5240	3.5241	-1.5911	26.23	0.59	-1.500	0.371	0.544	
0.5164	33049.85	3.5210	3.5211	-1.5968	26.24	0.60	-1.500			
0.5212	33355.59	3.5180	3.5179	-1.6086	26.25	0.61	-1.500			
0.5259	33659.38	3.5150	3.5150	-1.6086	26.26	0.62	-1.500			
0.5309	33975.12	3.5120	3.5120	-1.6255	26.27	0.63	-1.500			
0.5357	34286.05	3.5090	3.5091	-1.6395	26.28	0.64	-1.500			
0.5407	34606.65	3.5060	3.5060	-1.6589	26.30	0.66	-1.500			
0.5457	34926.36	3.5030	3.5030	-1.6680	26.31	0.67	-1.500			
0.5507	35247.55	3.5000	3.4999	-1.6627	26.32	0.68	-1.500			
0.5557	35567.70	3.4970	3.4970	-1.6611	26.33	0.69	-1.500			
0.5607	35887.97	3.4940	3.4941	-1.6610	26.34	0.70	-1.500			
0.5657	36205.55	3.4910	3.4909	-1.6657	26.36	0.72	-1.500			
0.5707	36523.16	3.4880	3.4880	-1.6560	26.37	0.73	-1.500			
0.5756	36840.98	3.4850	3.4850	-1.6621	26.39	0.75	-1.500			
0.5807	37164.31	3.4820	3.4820	-1.6572	26.40	0.76	-1.500			
0.5857	37484.59	3.4790	3.4790	-1.6504	26.42	0.78	-1.500			
0.5906	37801.01	3.4760	3.4760	-1.6419	26.43	0.79	-1.500			
0.5955	38114.25	3.4730	3.4731	-1.6274	26.45	0.81	-1.500			
0.6004	38424.92	3.4700	3.4699	-1.6080	26.46	0.82	-1.500			
0.6052	38734.30	3.4670	3.4670	-1.5900	26.48	0.84	-1.500			
0.6100	39037.43	3.4640	3.4640	-1.5653	26.49	0.85	-1.500			
0.6146	39336.31	3.4610	3.4610	-1.5521	26.51	0.87	-1.500			
0.6192	39630.74	3.4580	3.4580	-1.5339	26.53	0.89	-1.500			
0.6238	39922.88	3.4550	3.4550	-1.5160	26.55	0.91	-1.500			
0.6283	40213.20	3.4520	3.4520	-1.5033	26.57	0.93	-1.500			
0.6329	40502.72	3.4490	3.4489	-1.4872	26.58	0.94	-1.500			
0.6373	40789.54	3.4460	3.4460	-1.4660	26.60	0.96	-1.500			
0.6417	41068.25	3.4430	3.4431	-1.4423	26.62	0.98	-1.500			
0.6460	41340.81	3.4400	3.4400	-1.4198	26.64	1.00	-1.500			
0.6502	41612.48	3.4370	3.4369	-1.3982	26.66	1.02	-1.500			
0.6543	41875.63	3.4340	3.4340	-1.3835	26.68	1.04	-1.500			
0.6585	42142.04	3.4310	3.4310	-1.3681	26.69	1.05	-1.500			
0.6626	42404.83	3.4280	3.4280	-1.3506	26.71	1.07	-1.500			
0.6666	42662.19	3.4250	3.4250	-1.3295	26.73	1.09	-1.500			
0.6705	42914.36	3.4220	3.4220	-1.3038	26.75	1.11	-1.500			
0.6744	43161.83	3.4190	3.4190	-1.2840	26.77	1.13	-1.500			
0.6782	43406.88	3.4160	3.4160	-1.2661	26.79	1.15	-1.500			
0.6820	43647.34	3.4130	3.4130	-1.2400	26.81	1.17	-1.500			
0.6857	43887.36	3.4100	3.4099	-1.2213	26.82	1.18	-1.500			
0.6893	44118.38	3.4070	3.4071	-1.1923	26.84	1.20	-1.500			
0.6929	44344.72	3.4040	3.4041	-1.1630	26.86	1.22	-1.500			
0.6963	44565.81	3.4010	3.4009	-1.1316	26.88	1.24	-1.500			
0.6997	44779.28	3.3980	3.3980	-1.0963	26.89	1.25	-1.500			
0.7029	44986.73	3.3950	3.3950	-1.0698	26.91	1.27	-1.500			
0.7061	45190.06	3.3920	3.3921	-1.0431	26.92	1.28	-1.500			
0.7092	45387.10	3.3890	3.3889	-1.0099	26.94	1.30	-1.500			
0.7121	45576.92	3.3860	3.3859	-0.9753	26.95	1.31	-1.500			
0.7150	45761.75	3.3830	3.3831	-0.9464	26.96	1.32	-1.500			
0.7178	45940.52	3.3800	3.3801	-0.9201	26.96	1.32	-1.500			
0.7205	46113.97	3.3770	3.3769	-0.8897	26.98	1.34	-1.500			
0.7231	46279.93	3.3740	3.3741	-0.8618	26.99	1.35	-1.500			
0.7257	46443.34	3.3710	3.3711	-0.8416	27.01	1.37	-1.500			
0.7282	46603.01	3.3680	3.3680	-0.8229	27.02	1.38	-1.500			
0.7306	46759.86	3.3650	3.3650	-0.7990	27.04	1.40	-1.500			
0.7330	46910.56	3.3620	3.3620	-0.7742	27.05	1.41	-1.500			
0.7353	47056.29	3.3590	3.3591	-0.7509	27.06	1.42	-1.500			
0.7375	47198.99	3.3560	3.3560	-0.7295	27.07	1.43	-1.500			
0.7396	47335.96	3.3530	3.3530	-0.7048	27.08	1.44	-1.500			
0.7417	47469.22	3.3500	3.3498	-0.6839	27.09	1.45	-1.500			
0.7437	47597.32	3.3470	3.3471	-0.6643	27.10	1.46	-1.500			
0.7457	47723.82	3.3440	3.3440	-0.6480	27.12	1.48	-1.500			
0.7476	47845.80	3.3410	3.3410	-0.6316	27.13	1.49	-1.500			
0.7494	47964.51	3.3380	3.3380	-0.6119	27.13	1.49	-1.500			
0.7513	48081.68	3.3350	3.3350	-0.5987	27.14	1.50	-1.500			
0.7531	48195.27	3.3320	3.3320	-0.5845	27.15	1.51	-1.500			
0.7548	48305.55	3.3290	3.3290	-0.5709	27.16	1.52	-1.500			
0.7565	48414.04	3.3260	3.3260	-0.5533	27.17	1.53	-1.500			
0.7581	48519.17	3.3230	3.3229	-0.5383	27.18	1.54	-1.500			
0.7597	48621.04	3.3200	3.3200	-0.5224	27.19	1.55	-1.500			
0.7612	48719.44	3.3170	3.3170	-0.5122	27.20	1.56	-1.500			
0.7627	48815.80	3.3140	3.3139	-0.4996	27.20	1.56	-1.500			
0.7642	48910.25	3.3110	3.3109	-0.4879	27.21	1.57	-1.500			
0.7657	49002.69	3.3080	3.3080	-0.4746	27.22	1.58	-1.500			
0.7671	49093.86	3.3050	3.3051	-0.4656	27.23	1.59	-1.500			
0.7685	49182.94	3.3020	3.3020	-0.4546	27.23	1.59	-1.500			
0.7698	49268.18	3.2990	3.2990	-0.4430	27.24	1.60	-1.500			
0.7711	49351.52	3.2960	3.2960	-0.4313	27.25	1.61	-1.500			
0.7724	49433.21	3.2930	3.2929	-0.4206	27.26	1.62	-1.500			
0.7736	49512.90	3.2900	3.2900	-0.4119	27.27	1.63	-1.500			
0.7749	49591.54	3.2870	3.2871	-0.4044	27.27	1.63	-1.500			
0.7761	49667.61	3.2840	3.2840	-0.3946	27.28	1.64	-1.500			
0.7772	49742.90	3.2810	3.2809	-0.3849	27.29	1.65	-1.500			
0.7784	49815.99	3.2780	3.2780	-0.3749	27.30	1.66	-1.500			
0.7795	49887.12	3.2750	3.2750	-0.3654	27.30	1.66	-1.500			
0.7806	49956.13	3.2720	3.2720	-0.3562	27.31	1.67	-1.500			
0.7816	50023.11	3.2690	3.2691	-0.3468	27.32	1.68	-1.500			
0.7826	50088.64	3.2660	3.2659	-0.3398	27.32	1.68	-1.500			
0.7836	50153.35	3.2630	3.2630	-0.3321	27.33	1.69	-1.500			
0.7846	50216.55	3.2600	3.2600	-0.3268	27.34	1.70	-1.500			
0.7856	50278.82	3.2570	3.2569	-0.3208	27.34	1.70	-1.500			
0.7866	50339.95	3.2540	3.2540	-0.3134	27.35	1.71	-1.500			
0.7875	50398.92	3.2510	3.2509	-0.3069	27.36	1.72	-1.500			
0.7884	50457.19	3.2480	3.2481	-0.3012	27.36	1.72	-1.500			
0.7893	50514.56	3.2450	3.2449	-0.2951	27.37	1.73	-1.500			
0.7902	50570.73	3.2420	3.2420	-0.2904	27.37	1.73	-1.500			
0.7910	50625.51	3.2390	3.2392	-0.2838	27.38	1.74	-1.500			
0.7919	50679.63	3.2360	3.2360	-0.2801	27.38	1.74	-1.500			
0.7927	50733.20	3.2330	3.2330	-0.2763	27.39	1.75	-1.500			
0.7935	50785.59	3.2300	3.2301	-0.2705	27.40	1.76	-1.500			
0.7943	50837.50	3.2270	3.2268	-0.2656	27.40	1.76	-1.500			
0.7951	50887.75	3.2240	3.2241	-0.2618	27.41	1.77	-1.500			
0.7959	50937.84	3.2210	3.2210	-0.2569	27.42	1.78	-1.500			
0.7967	50986.49	3.2180	3.2179	-0.2517	27.42	1.78	-1.500			
0.7974	51034.28	3.2150	3.2150	-0.2479	27.43	1.79	-1.500			
0.7981	51081.10	3.2120	3.2122	-0.2435	27.44	1.80	-1.500			
0.7989	51127.59	3.2090	3.2090	-0.2409	27.44	1.80	-1.500			
0.7996	51173.40	3.2060	3.2060	-0.2378	27.45	1.81	-1.500			
0.8003	51218.75	3.2030	3.2030	-0.2338	27.45	1.81	-1.500			
0.8010	51263.27	3.2000	3.2000	-0.2308	27.46	1.82	-1.500			
0.8017	51307.87	3.1970	3.1970	-0.2285	27.47	1.83	-1.500			
0.8024	51351.05	3.1940	3.1940	-0.2258	27.47	1.83	-1.500			
0.8030	51394.21	3.1910	3.1909	-0.2219	27.48	1.84	-1.500			
0.8037	51436.50	3.1880	3.1879	-0.2186	27.48	1.84	-1.500			
0.8043	51478.08	3.1850	3.1850	-0.2153	27.49	1.85	-1.500			
0.8050	51519.01	3.1820	3.1821	-0.2128	27.50	1.86	-1.500			
0.8056	51559.90	3.1790	3.1790	-0.2103	27.50	1.86	-1.500			
0.8062	51599.95	3.1760	3.1759	-0.2069	27.51	1.87	-1.500			
0.8069	51639.07	3.1730	3.1730	-0.2041	27.51	1.87	-1.500			
0.8075	51677.54	3.1700	3.1700	-0.2017	27.52	1.88	-1.500			
0.8081	51716.03	3.1670	3.1669	-0.2013	27.53	1.89	-1.500			
0.8087	51754.60	3.1640	3.1641	-0.2003	27.53	1.89	-1.500			
0.8093	51792.93	3.1610	3.1609	-0.1977	27.54	1.90	-1.500			
0.8099	51830.80	3.1580	3.1580	-0.1957	27.54	1.90	-1.500			
0.8104	51868.72	3.1550	3.1551	-0.1943	27.55	1.91	-1.500			
0.8110	51905.73	3.1520	3.1521	-0.1912	27.56	1.92	-1.500			
0.8116	51942.26	3.1490	3.1489	-0.1886	27.56	1.92	-1.500			
0.8122	51977.70	3.1460	3.1460	-0.1866	27.57	1.93	-1.500			
0.8127	52012.90	3.1430	3.1431	-0.1839	27.57	1.93	-1.500			
0.8133	52048.13	3.1400	3.1399	-0.1832	27.58	1.94	-1.500			
0.8138	52083.51	3.1370	3.1369	-0.1819	27.58	1.94	-1.500			
0.8143	52118.26	3.1340	3.1341	-0.1803	27.59	1.95	-1.500			
0.8149	52153.00	3.1310	3.1310	-0.1792	27.59	1.95	-1.500			
0.8154	52187.21	3.1280	3.1279	-0.1773	27.60	1.96	-1.500			
0.8160	52221.05	3.1250	3.1249	-0.1760	27.60	1.96	-1.500			
0.8165	52254.60	3.1220	3.1221	-0.1735	27.61	1.97	-1.500			
0.8170	52287.58	3.1190	3.1190	-0.1726	27.61	1.97	-1.500			
0.8175	52320.55	3.1160	3.1159	-0.1714	27.62	1.98	-1.500			
0.8180	52353.40	3.1130	3.1130	-0.1701	27.62	1.98	-1.500			
0.8185	52385.89	3.1100	3.1099	-0.1687	27.63	1.99	-1.500			
0.8190	52418.22	3.1070	3.1071	-0.1674	27.63	1.99	-1.500			
0.8195	52450.29	3.1040	3.1040	-0.1662	27.64	2.00	-1.500			
0.8200	52482.05	3.1010	3.1010	-0.1646	27.65	2.01	-1.500			
0.8205	52513.70	3.0980	3.0980	-0.1639	27.65	2.01	-1.500			
0.8210	52544.84	3.0950	3.0950	-0.1616	27.66	2.02	-1.500			
0.8215	52575.74	3.0920	3.0920	-0.1603	27.66	2.02	-1.500			
0.8220	52606.51	3.0890	3.0890	-0.1590	27.67	2.03	-1.500			
0.8224	52636.71	3.0860	3.0861	-0.1580	27.67	2.03	-1.500			
0.8229	52666.80	3.0830	3.0830	-0.1572	27.68	2.04	-1.500			
0.8234	52696.94	3.0800	3.0799	-0.1567	27.68	2.04	-1.500			
0.8239	52726.95	3.0770	3.0770	-0.1556	27.69	2.05	-1.500			
0.8243	52756.76	3.0740	3.0740	-0.1546	27.69	2.05	-1.500			
0.8248	52786.65	3.0710	3.0710	-0.1543	27.70	2.06	-1.500			
0.8253	52816.13	3.0680	3.0681	-0.1529	27.71	2.07	-1.500			
0.8257	52845.44	3.0650	3.0650	-0.1518	27.71	2.07	-1.500			
0.8262	52874.30	3.0620	3.0620	-0.1503	27.72	2.08	-1.500			
0.8266	52902.97	3.0590	3.0590	-0.1491	27.72	2.08	-1.500			
0.8271	52931.44	3.0560	3.0561	-0.1487	27.73	2.09	-1.500			
0.8275	52960.02	3.0530	3.0530	-0.1477	27.73	2.09	-1.500			
0.8279	52988.49	3.0500	3.0499	-0.1463	27.74	2.10	-1.500			
0.8284	53016.43	3.0470	3.0470	-0.1448	27.75	2.11	-1.500			
0.8288	53044.08	3.0440	3.0441	-0.1444	27.75	2.11	-1.500			
0.8292	53071.73	3.0410	3.0410	-0.1432	27.76	2.12	-1.500			
0.8297	53098.92	3.0380	3.0379	-0.1423	27.76	2.12	-1.500			
0.8301	53126.18	3.0350	3.0349	-0.1417	27.77	2.13	-1.500			
0.8305	53153.12	3.0320	3.0321	-0.1408	27.78	2.14	-1.500			
0.8309	53180.42	3.0290	3.0289	-0.1398	27.78	2.14	-1.500			
0.8314	53207.30	3.0260	3.0260	-0.1394	27.79	2.15	-1.500			
0.8318	53233.92	3.0230	3.0231	-0.1379	27.79	2.15	-1.500			
0.8322	53260.04	3.0200	3.0200	-0.1367	27.80	2.16	-1.500			
0.8326	53286.10	3.0170	3.0169	-0.1366	27.81	2.17	-1.500			
0.8330	53311.89	3.0140	3.0139	-0.1360	27.81	2.17	-1.500			
0.8334	53338.06	3.0110	3.0111	-0.1366	27.82	2.18	-1.500			
0.8338	53364.19	3.0080	3.0079	-0.1375	27.82	2.18	-1.500			
0.8342	53390.73	3.0050	3.0050	-0.1383	27.83	2.19	-1.500			
0.8346	53417.43	3.0020	3.0020	-0.1413	27.83	2.19	-1.500			
