Ah_balance (normalized)	Ah_balance (mAh)	Voltage - fit (V)	Voltage -  interpolate (V)	dQ/dV (1/V)	Temperature (°C)	Temperature - diff (°C)	Current (C)	R_DC 0ms (mOhm)	R_DC 50ms (mOhm)	R_DC 50 ms PEC (mOhm)
0.1935	12385.84	3.9270	3.9267	-0.1026	25.62	0.00	-1.500			
0.1939	12408.62	3.9240	3.9239	-0.1310	25.62	0.00	-1.500			
0.1943	12436.81	3.9210	3.9209	-0.1573	25.62	0.00	-1.500			
0.1948	12469.63	3.9180	3.9180	-0.1822	25.62	0.00	-1.500			
0.1954	12506.95	3.9150	3.9151	-0.2077	25.62	0.00	-1.500			
0.1961	12550.07	3.9120	3.9120	-0.2308	25.62	0.00	-1.500			
0.1968	12596.43	3.9090	3.9090	-0.2541	25.62	-0.00	-1.500			
0.1976	12647.57	3.9060	3.9060	-0.2751	25.62	-0.00	-1.500			
0.1985	12702.50	3.9030	3.9029	-0.2978	25.62	-0.00	-1.500			
0.1994	12761.95	3.9000	3.9001	-0.3191	25.62	-0.00	-1.500			
0.2004	12825.42	3.8970	3.8969	-0.3406	25.62	-0.00	-1.500			
0.2014	12892.48	3.8940	3.8940	-0.3623	25.62	-0.00	-1.500			
0.2026	12964.70	3.8910	3.8910	-0.3836	25.62	-0.00	-1.500			
0.2038	13040.09	3.8880	3.8880	-0.4040	25.61	-0.01	-1.500			
0.2050	13120.31	3.8850	3.8850	-0.4236	25.61	-0.01	-1.500			
0.2063	13203.18	3.8820	3.8821	-0.4434	25.61	-0.01	-1.500			
0.2077	13290.45	3.8790	3.8790	-0.4633	25.61	-0.01	-1.500			
0.2091	13381.87	3.8760	3.8760	-0.4795	25.61	-0.01	-1.500			
0.2106	13475.81	3.8730	3.8730	-0.4949	25.61	-0.01	-1.500			
0.2121	13573.37	3.8700	3.8700	-0.5095	25.61	-0.01	-1.500			
0.2136	13672.32	3.8670	3.8670	-0.5220	25.61	-0.01	-1.500			
0.2152	13773.42	3.8640	3.8640	-0.5363	25.60	-0.02	-1.500			
0.2168	13877.39	3.8610	3.8610	-0.5467	25.60	-0.02	-1.500			
0.2185	13984.10	3.8580	3.8579	-0.5578	25.60	-0.02	-1.500			
0.2202	14093.16	3.8550	3.8549	-0.5658	25.60	-0.02	-1.500			
0.2219	14202.93	3.8520	3.8521	-0.5747	25.60	-0.02	-1.500			
0.2237	14313.97	3.8490	3.8491	-0.5819	25.60	-0.02	-1.500			
0.2254	14426.23	3.8460	3.8459	-0.5878	25.61	-0.01	-1.500			
0.2272	14539.55	3.8430	3.8430	-0.5908	25.61	-0.01	-1.500			
0.2290	14654.43	3.8400	3.8400	-0.5986	25.61	-0.01	-1.500			
0.2308	14770.44	3.8370	3.8370	-0.6047	25.62	-0.00	-1.500			
0.2326	14887.55	3.8340	3.8340	-0.6069	25.62	-0.00	-1.500			
0.2344	15003.37	3.8310	3.8310	-0.6083	25.62	0.00	-1.500			
0.2363	15120.72	3.8280	3.8280	-0.6109	25.62	0.00	-1.500			
0.2381	15238.28	3.8250	3.8250	-0.6144	25.63	0.01	-1.500			
0.2399	15356.58	3.8220	3.8220	-0.6183	25.63	0.01	-1.500			
0.2418	15475.44	3.8190	3.8190	-0.6218	25.63	0.01	-1.500			
0.2437	15594.69	3.8160	3.8160	-0.6254	25.64	0.02	-1.500			
0.2456	15715.61	3.8130	3.8130	-0.6289	25.64	0.02	-1.500			
0.2475	15836.89	3.8100	3.8100	-0.6313	25.64	0.02	-1.500			
0.2494	15958.80	3.8070	3.8070	-0.6322	25.65	0.03	-1.500			
0.2513	16080.60	3.8040	3.8040	-0.6318	25.65	0.03	-1.500			
0.2532	16202.19	3.8010	3.8010	-0.6324	25.65	0.03	-1.500			
0.2550	16323.09	3.7980	3.7980	-0.6329	25.66	0.04	-1.500			
0.2569	16444.09	3.7950	3.7950	-0.6347	25.66	0.04	-1.500			
0.2589	16566.60	3.7920	3.7920	-0.6349	25.66	0.04	-1.500			
0.2608	16688.53	3.7890	3.7890	-0.6377	25.67	0.05	-1.500			
0.2627	16811.82	3.7860	3.7861	-0.6376	25.67	0.05	-1.500			
0.2646	16933.88	3.7830	3.7830	-0.6408	25.68	0.06	-1.500			
0.2665	17057.10	3.7800	3.7800	-0.6406	25.68	0.06	-1.500			
0.2684	17179.43	3.7770	3.7770	-0.6427	25.68	0.06	-1.500			
0.2704	17302.85	3.7740	3.7740	-0.6471	25.69	0.07	-1.500			
0.2723	17427.71	3.7710	3.7710	-0.6535	25.69	0.07	-1.500			
0.2743	17553.13	3.7680	3.7680	-0.6582	25.70	0.08	-1.500			
0.2763	17680.94	3.7650	3.7650	-0.6641	25.70	0.08	-1.500			
0.2783	17809.16	3.7620	3.7620	-0.6655	25.70	0.08	-1.500			
0.2803	17937.89	3.7590	3.7591	-0.6686	25.71	0.09	-1.500			
0.2823	18066.28	3.7560	3.7560	-0.6694	25.71	0.09	-1.500			
0.2843	18195.00	3.7530	3.7529	-0.6704	25.72	0.10	-1.500			
0.2863	18322.78	3.7500	3.7500	-0.6723	25.72	0.10	-1.500			
0.2883	18451.54	3.7470	3.7471	-0.6782	25.72	0.10	-1.500			
0.2903	18582.26	3.7440	3.7439	-0.6854	25.73	0.11	-1.500			
0.2924	18714.95	3.7410	3.7410	-0.6920	25.73	0.11	-1.500			
0.2945	18848.49	3.7380	3.7379	-0.6957	25.74	0.12	-1.500			
0.2966	18982.91	3.7350	3.7350	-0.7003	25.74	0.12	-1.500			
0.2987	19118.49	3.7320	3.7321	-0.7057	25.75	0.13	-1.500			
0.3008	19253.47	3.7290	3.7290	-0.7115	25.75	0.13	-1.500			
0.3030	19390.32	3.7260	3.7260	-0.7155	25.76	0.14	-1.500			
0.3051	19528.07	3.7230	3.7230	-0.7193	25.76	0.14	-1.500			
0.3073	19666.45	3.7200	3.7201	-0.7293	25.77	0.15	-1.500			
0.3095	19807.84	3.7170	3.7170	-0.7387	25.77	0.15	-1.500			
0.3117	19949.73	3.7140	3.7139	-0.7473	25.78	0.16	-1.500			
0.3140	20094.33	3.7110	3.7110	-0.7532	25.78	0.16	-1.500			
0.3162	20239.88	3.7080	3.7080	-0.7602	25.79	0.17	-1.500			
0.3186	20387.79	3.7050	3.7050	-0.7707	25.79	0.17	-1.500			
0.3209	20535.76	3.7020	3.7020	-0.7792	25.80	0.18	-1.500			
0.3232	20685.38	3.6990	3.6989	-0.7821	25.80	0.18	-1.500			
0.3256	20836.95	3.6960	3.6960	-0.7898	25.81	0.19	-1.500			
0.3279	20988.36	3.6930	3.6930	-0.7971	25.81	0.19	-1.500			
0.3303	21141.96	3.6900	3.6901	-0.8099	25.81	0.19	-1.500			
0.3328	21299.56	3.6870	3.6869	-0.8151	25.82	0.20	-1.500			
0.3353	21457.09	3.6840	3.6839	-0.8181	25.82	0.20	-1.500			
0.3377	21613.53	3.6810	3.6811	-0.8264	25.83	0.21	-1.500			
0.3402	21773.90	3.6780	3.6781	-0.8365	25.83	0.21	-1.500			
0.3427	21935.51	3.6750	3.6749	-0.8425	25.83	0.21	-1.500			
0.3452	22095.93	3.6720	3.6719	-0.8554	25.84	0.22	-1.500			
0.3478	22258.83	3.6690	3.6691	-0.8668	25.84	0.22	-1.500			
0.3505	22429.06	3.6660	3.6659	-0.8826	25.85	0.23	-1.500			
0.3531	22601.40	3.6630	3.6630	-0.8957	25.85	0.23	-1.500			
0.3558	22772.89	3.6600	3.6601	-0.9053	25.86	0.24	-1.500			
0.3586	22948.34	3.6570	3.6570	-0.9177	25.86	0.24	-1.500			
0.3613	23126.19	3.6540	3.6540	-0.9293	25.86	0.24	-1.500			
0.3641	23305.06	3.6510	3.6509	-0.9355	25.87	0.25	-1.500			
0.3670	23485.50	3.6480	3.6481	-0.9485	25.87	0.25	-1.500			
0.3698	23669.29	3.6450	3.6450	-0.9575	25.88	0.26	-1.500			
0.3727	23854.57	3.6420	3.6420	-0.9653	25.88	0.26	-1.500			
0.3756	24039.14	3.6390	3.6390	-0.9813	25.89	0.27	-1.500			
0.3786	24228.24	3.6360	3.6360	-0.9923	25.89	0.27	-1.500			
0.3816	24420.17	3.6330	3.6330	-1.0067	25.89	0.27	-1.500			
0.3846	24616.28	3.6300	3.6300	-1.0191	25.90	0.28	-1.500			
0.3877	24812.44	3.6270	3.6270	-1.0319	25.90	0.28	-1.500			
0.3908	25012.52	3.6240	3.6241	-1.0461	25.90	0.28	-1.500			
0.3940	25213.66	3.6210	3.6210	-1.0578	25.91	0.29	-1.500			
0.3971	25416.57	3.6180	3.6180	-1.0690	25.91	0.29	-1.500			
0.4004	25624.81	3.6150	3.6150	-1.0849	25.91	0.29	-1.500			
0.4036	25833.54	3.6120	3.6120	-1.0981	25.92	0.30	-1.500			
0.4070	26047.68	3.6090	3.6090	-1.1136	25.92	0.30	-1.500			
0.4103	26261.66	3.6060	3.6060	-1.1248	25.93	0.31	-1.500			
0.4137	26479.44	3.6030	3.6030	-1.1401	25.93	0.31	-1.500			
0.4172	26698.53	3.6000	3.6000	-1.1538	25.93	0.31	-1.500			
0.4207	26921.84	3.5970	3.5970	-1.1681	25.94	0.32	-1.500			
0.4242	27149.53	3.5940	3.5940	-1.1782	25.94	0.32	-1.500			
0.4278	27376.09	3.5910	3.5910	-1.1870	25.95	0.33	-1.500			
0.4313	27604.22	3.5880	3.5881	-1.2041	25.95	0.33	-1.500			
0.4349	27835.14	3.5850	3.5850	-1.2223	25.95	0.33	-1.500			
0.4386	28071.30	3.5820	3.5819	-1.2362	25.95	0.33	-1.500			
0.4423	28310.34	3.5790	3.5790	-1.2577	25.96	0.34	-1.500			
0.4462	28554.63	3.5760	3.5760	-1.2800	25.96	0.34	-1.500			
0.4500	28803.14	3.5730	3.5730	-1.2982	25.97	0.35	-1.500			
0.4540	29053.74	3.5700	3.5701	-1.3147	25.97	0.35	-1.500			
0.4579	29306.90	3.5670	3.5670	-1.3315	25.98	0.36	-1.500			
0.4619	29563.97	3.5640	3.5639	-1.3519	25.98	0.36	-1.500			
0.4660	29826.73	3.5610	3.5610	-1.3704	25.99	0.37	-1.500			
0.4702	30090.16	3.5580	3.5580	-1.3860	26.00	0.38	-1.500			
0.4744	30359.15	3.5550	3.5550	-1.4060	26.00	0.38	-1.500			
0.4786	30631.10	3.5520	3.5520	-1.4246	26.01	0.39	-1.500			
0.4829	30905.97	3.5490	3.5490	-1.4436	26.01	0.39	-1.500			
0.4873	31184.95	3.5460	3.5460	-1.4631	26.02	0.40	-1.500			
0.4917	31469.98	3.5430	3.5429	-1.4747	26.02	0.40	-1.500			
0.4962	31755.44	3.5400	3.5401	-1.4888	26.03	0.41	-1.500			
0.5006	32040.57	3.5370	3.5370	-1.5038	26.04	0.42	-1.500			
0.5051	32327.60	3.5340	3.5340	-1.5386	26.04	0.42	-1.500			
0.5098	32628.46	3.5310	3.5309	-1.5502	26.05	0.43	-1.500			
0.5145	32929.94	3.5280	3.5279	-1.5597	26.05	0.43	-1.500			
0.5193	33233.40	3.5250	3.5251	-1.5784	26.06	0.44	-1.500	0.371	0.542	
0.5240	33538.34	3.5220	3.5221	-1.5950	26.07	0.45	-1.500			
0.5288	33844.54	3.5190	3.5188	-1.6026	26.08	0.46	-1.500			
0.5336	34151.87	3.5160	3.5159	-1.6087	26.09	0.47	-1.500			
0.5384	34458.64	3.5130	3.5131	-1.6250	26.10	0.48	-1.500			
0.5434	34776.62	3.5100	3.5100	-1.6485	26.11	0.49	-1.500			
0.5483	35094.16	3.5070	3.5070	-1.6519	26.12	0.50	-1.500			
0.5533	35410.22	3.5040	3.5039	-1.6516	26.13	0.51	-1.500			
0.5582	35726.76	3.5010	3.5010	-1.6559	26.14	0.52	-1.500			
0.5633	36048.20	3.4980	3.4981	-1.6588	26.15	0.53	-1.500			
0.5683	36368.61	3.4950	3.4950	-1.6588	26.16	0.54	-1.500			
0.5732	36684.72	3.4920	3.4920	-1.6505	26.16	0.54	-1.500			
0.5782	37002.10	3.4890	3.4890	-1.6503	26.18	0.56	-1.500			
0.5831	37317.78	3.4860	3.4860	-1.6524	26.19	0.57	-1.500			
0.5880	37634.61	3.4830	3.4829	-1.6492	26.20	0.58	-1.500			
0.5930	37952.60	3.4800	3.4800	-1.6476	26.21	0.59	-1.500			
0.5980	38271.32	3.4770	3.4770	-1.6411	26.22	0.60	-1.500			
0.6029	38585.02	3.4740	3.4740	-1.6286	26.24	0.62	-1.500			
0.6078	38896.63	3.4710	3.4710	-1.6163	26.25	0.63	-1.500			
0.6126	39206.21	3.4680	3.4680	-1.5946	26.27	0.65	-1.500			
0.6174	39510.74	3.4650	3.4650	-1.5798	26.28	0.66	-1.500			
0.6221	39813.74	3.4620	3.4621	-1.5633	26.29	0.67	-1.500			
0.6268	40112.94	3.4590	3.4589	-1.5415	26.31	0.69	-1.500			
0.6313	40405.26	3.4560	3.4560	-1.5282	26.32	0.70	-1.500			
0.6359	40697.85	3.4530	3.4530	-1.5024	26.33	0.71	-1.500			
0.6404	40985.85	3.4500	3.4499	-1.4877	26.34	0.72	-1.500			
0.6448	41269.01	3.4470	3.4471	-1.4673	26.36	0.74	-1.500			
0.6492	41547.50	3.4440	3.4441	-1.4436	26.37	0.75	-1.500			
0.6535	41823.03	3.4410	3.4409	-1.4272	26.39	0.77	-1.500			
0.6578	42096.10	3.4380	3.4380	-1.4168	26.41	0.79	-1.500			
0.6620	42367.89	3.4350	3.4350	-1.3968	26.42	0.80	-1.500			
0.6662	42637.61	3.4320	3.4320	-1.3886	26.44	0.82	-1.500			
0.6703	42900.71	3.4290	3.4292	-1.3621	26.46	0.84	-1.500			
0.6744	43158.99	3.4260	3.4258	-1.3415	26.47	0.85	-1.500			
0.6783	43413.54	3.4230	3.4230	-1.3257	26.49	0.87	-1.500			
0.6823	43664.78	3.4200	3.4200	-1.3066	26.51	0.89	-1.500			
0.6862	43916.68	3.4170	3.4170	-1.2831	26.53	0.91	-1.500			
0.6901	44163.64	3.4140	3.4140	-1.2663	26.55	0.93	-1.500			
0.6938	44403.03	3.4110	3.4110	-1.2358	26.56	0.94	-1.500			
0.6975	44638.43	3.4080	3.4080	-1.2121	26.57	0.95	-1.500			
0.7011	44867.46	3.4050	3.4049	-1.1885	26.59	0.97	-1.500			
0.7046	45091.81	3.4020	3.4020	-1.1611	26.60	0.98	-1.500			
0.7080	45314.74	3.3990	3.3990	-1.1393	26.62	1.00	-1.500			
0.7115	45533.42	3.3960	3.3960	-1.1124	26.64	1.02	-1.500			
0.7148	45744.24	3.3930	3.3929	-1.0741	26.66	1.04	-1.500			
0.7179	45947.19	3.3900	3.3900	-1.0409	26.67	1.05	-1.500			
0.7210	46142.34	3.3870	3.3871	-1.0082	26.68	1.06	-1.500			
0.7239	46331.56	3.3840	3.3840	-0.9746	26.69	1.07	-1.500			
0.7268	46515.86	3.3810	3.3809	-0.9466	26.71	1.09	-1.500			
0.7296	46694.93	3.3780	3.3780	-0.9163	26.72	1.10	-1.500			
0.7323	46867.68	3.3750	3.3751	-0.8898	26.74	1.12	-1.500			
0.7350	47038.04	3.3720	3.3719	-0.8617	26.75	1.13	-1.500			
0.7375	47199.69	3.3690	3.3691	-0.8295	26.76	1.14	-1.500			
0.7399	47354.54	3.3660	3.3660	-0.8028	26.77	1.15	-1.500			
0.7423	47506.46	3.3630	3.3630	-0.7806	26.79	1.17	-1.500			
0.7446	47653.31	3.3600	3.3599	-0.7561	26.79	1.17	-1.500			
0.7468	47796.56	3.3570	3.3570	-0.7331	26.80	1.18	-1.500			
0.7490	47935.25	3.3540	3.3541	-0.7098	26.81	1.19	-1.500			
0.7511	48069.55	3.3510	3.3510	-0.6929	26.82	1.20	-1.500			
0.7531	48200.18	3.3480	3.3480	-0.6699	26.84	1.22	-1.500			
0.7551	48326.22	3.3450	3.3449	-0.6519	26.85	1.23	-1.500			
0.7570	48448.45	3.3420	3.3420	-0.6382	26.86	1.24	-1.500			
0.7589	48569.75	3.3390	3.3391	-0.6235	26.87	1.25	-1.500			
0.7608	48688.48	3.3360	3.3360	-0.6090	26.88	1.26	-1.500			
0.7626	48804.54	3.3330	3.3330	-0.5936	26.88	1.26	-1.500			
0.7643	48917.19	3.3300	3.3299	-0.5751	26.89	1.27	-1.500			
0.7661	49027.35	3.3270	3.3270	-0.5588	26.90	1.28	-1.500			
0.7677	49131.40	3.3240	3.3241	-0.5419	26.91	1.29	-1.500			
0.7693	49232.22	3.3210	3.3210	-0.5262	26.91	1.29	-1.500			
0.7708	49332.14	3.3180	3.3180	-0.5120	26.92	1.30	-1.500			
0.7723	49429.50	3.3150	3.3150	-0.5014	26.93	1.31	-1.500			
0.7738	49524.54	3.3120	3.3121	-0.4909	26.94	1.32	-1.500			
0.7753	49618.08	3.3090	3.3090	-0.4800	26.94	1.32	-1.500			
0.7767	49708.95	3.3060	3.3059	-0.4689	26.95	1.33	-1.500			
0.7781	49797.50	3.3030	3.3029	-0.4558	26.96	1.34	-1.500			
0.7794	49883.40	3.3000	3.3001	-0.4457	26.97	1.35	-1.500			
0.7808	49968.61	3.2970	3.2970	-0.4352	26.98	1.36	-1.500			
0.7821	50051.21	3.2940	3.2940	-0.4228	26.99	1.37	-1.500			
0.7833	50130.63	3.2910	3.2910	-0.4154	26.99	1.37	-1.500			
0.7845	50209.25	3.2880	3.2881	-0.4068	27.00	1.38	-1.500			
0.7857	50286.59	3.2850	3.2849	-0.3987	27.01	1.39	-1.500			
0.7869	50362.57	3.2820	3.2820	-0.3922	27.02	1.40	-1.500			
0.7881	50437.08	3.2790	3.2791	-0.3835	27.02	1.40	-1.500			
0.7892	50511.03	3.2760	3.2759	-0.3755	27.03	1.41	-1.500			
0.7903	50582.09	3.2730	3.2730	-0.3657	27.04	1.42	-1.500			
0.7914	50650.03	3.2700	3.2700	-0.3542	27.04	1.42	-1.500			
0.7925	50717.58	3.2670	3.2670	-0.3477	27.05	1.43	-1.500			
0.7935	50783.41	3.2640	3.2639	-0.3395	27.05	1.43	-1.500			
0.7945	50847.74	3.2610	3.2610	-0.3314	27.06	1.44	-1.500			
0.7955	50910.66	3.2580	3.2581	-0.3268	27.07	1.45	-1.500			
0.7964	50972.71	3.2550	3.2550	-0.3209	27.07	1.45	-1.500			
0.7974	51033.53	3.2520	3.2520	-0.3152	27.08	1.46	-1.500			
0.7983	51093.92	3.2490	3.2489	-0.3094	27.09	1.47	-1.500			
0.7993	51152.71	3.2460	3.2460	-0.3031	27.09	1.47	-1.500			
0.8002	51210.77	3.2430	3.2431	-0.2973	27.10	1.48	-1.500			
0.8010	51267.12	3.2400	3.2400	-0.2916	27.11	1.49	-1.500			
0.8019	51321.94	3.2370	3.2370	-0.2856	27.12	1.50	-1.500			
0.8028	51376.51	3.2340	3.2339	-0.2822	27.12	1.50	-1.500			
0.8036	51429.82	3.2310	3.2309	-0.2773	27.13	1.51	-1.500			
0.8044	51482.97	3.2280	3.2280	-0.2741	27.14	1.52	-1.500			
0.8052	51535.23	3.2250	3.2250	-0.2703	27.14	1.52	-1.500			
0.8060	51586.98	3.2220	3.2220	-0.2662	27.15	1.53	-1.500			
0.8068	51637.58	3.2190	3.2190	-0.2614	27.16	1.54	-1.500			
0.8076	51687.39	3.2160	3.2160	-0.2571	27.16	1.54	-1.500			
0.8084	51736.33	3.2130	3.2131	-0.2529	27.17	1.55	-1.500			
0.8091	51784.62	3.2100	3.2100	-0.2489	27.18	1.56	-1.500			
0.8099	51831.86	3.2070	3.2069	-0.2446	27.18	1.56	-1.500			
0.8106	51878.15	3.2040	3.2040	-0.2412	27.19	1.57	-1.500			
0.8113	51923.98	3.2010	3.2010	-0.2383	27.19	1.57	-1.500			
0.8120	51969.51	3.1980	3.1980	-0.2356	27.20	1.58	-1.500			
0.8127	52014.31	3.1950	3.1949	-0.2329	27.20	1.58	-1.500			
0.8134	52058.86	3.1920	3.1920	-0.2301	27.21	1.59	-1.500			
0.8141	52102.93	3.1890	3.1890	-0.2273	27.22	1.60	-1.500			
0.8148	52146.29	3.1860	3.1861	-0.2243	27.22	1.60	-1.500			
0.8155	52189.25	3.1830	3.1829	-0.2215	27.23	1.61	-1.500			
0.8161	52231.28	3.1800	3.1800	-0.2184	27.23	1.61	-1.500			
0.8168	52272.69	3.1770	3.1770	-0.2159	27.24	1.62	-1.500			
0.8174	52313.93	3.1740	3.1740	-0.2137	27.24	1.62	-1.500			
0.8180	52354.62	3.1710	3.1710	-0.2115	27.25	1.63	-1.500			
0.8187	52395.10	3.1680	3.1680	-0.2091	27.25	1.63	-1.500			
0.8193	52435.32	3.1650	3.1651	-0.2065	27.26	1.64	-1.500			
0.8199	52474.71	3.1620	3.1620	-0.2034	27.26	1.64	-1.500			
0.8205	52513.65	3.1590	3.1590	-0.2005	27.27	1.65	-1.500			
0.8211	52551.50	3.1560	3.1560	-0.1990	27.27	1.65	-1.500			
0.8217	52589.29	3.1530	3.1529	-0.1962	27.27	1.65	-1.500			
0.8223	52626.82	3.1500	3.1500	-0.1947	27.28	1.66	-1.500			
0.8229	52663.82	3.1470	3.1469	-0.1935	27.29	1.67	-1.500			
0.8235	52700.83	3.1440	3.1441	-0.1925	27.29	1.67	-1.500			
0.8240	52738.15	3.1410	3.1409	-0.1912	27.30	1.68	-1.500			
0.8246	52774.68	3.1380	3.1380	-0.1892	27.31	1.69	-1.500			
0.8252	52811.00	3.1350	3.1350	-0.1872	27.31	1.69	-1.500			
0.8257	52846.49	3.1320	3.1321	-0.1849	27.32	1.70	-1.500			
0.8263	52882.00	3.1290	3.1289	-0.1837	27.32	1.70	-1.500			
0.8268	52917.06	3.1260	3.1260	-0.1815	27.33	1.71	-1.500			
0.8274	52951.47	3.1230	3.1230	-0.1792	27.34	1.72	-1.500			
0.8279	52985.43	3.1200	3.1200	-0.1780	27.34	1.72	-1.500			
0.8284	53019.69	3.1170	3.1170	-0.1770	27.35	1.73	-1.500			
0.8290	53053.55	3.1140	3.1140	-0.1755	27.35	1.73	-1.500			
0.8295	53087.07	3.1110	3.1109	-0.1741	27.36	1.74	-1.500			
0.8300	53120.40	3.1080	3.1080	-0.1727	27.36	1.74	-1.500			
0.8305	53153.45	3.1050	3.1050	-0.1713	27.37	1.75	-1.500			
0.8310	53186.16	3.1020	3.1020	-0.1700	27.38	1.76	-1.500			
0.8315	53218.78	3.0990	3.0990	-0.1687	27.38	1.76	-1.500			
0.8320	53250.72	3.0960	3.0960	-0.1672	27.39	1.77	-1.500			
0.8325	53282.81	3.0930	3.0929	-0.1664	27.40	1.78	-1.500			
0.8330	53314.68	3.0900	3.0900	-0.1652	27.40	1.78	-1.500			
0.8335	53346.29	3.0870	3.0871	-0.1641	27.41	1.79	-1.500			
0.8340	53377.80	3.0840	3.0840	-0.1625	27.41	1.79	-1.500			
0.8345	53408.93	3.0810	3.0811	-0.1613	27.42	1.80	-1.500			
0.8350	53439.76	3.0780	3.0779	-0.1596	27.43	1.81	-1.500			
0.8355	53470.13	3.0750	3.0751	-0.1589	27.43	1.81	-1.500			
0.8359	53500.44	3.0720	3.0720	-0.1577	27.44	1.82	-1.500			
0.8364	53530.52	3.0690	3.0691	-0.1567	27.44	1.82	-1.500			
0.8369	53560.53	3.0660	3.0659	-0.1561	27.45	1.83	-1.500			
0.8374	53590.52	3.0630	3.0631	-0.1549	27.46	1.84	-1.500			
0.8378	53620.20	3.0600	3.0600	-0.1546	27.46	1.84	-1.500			
0.8383	53649.91	3.0570	3.0570	-0.1535	27.47	1.85	-1.500			
0.8387	53679.27	3.0540	3.0540	-0.1524	27.47	1.85	-1.500			
0.8392	53708.30	3.0510	3.0510	-0.1514	27.48	1.86	-1.500			
0.8396	53737.56	3.0480	3.0481	-0.1501	27.49	1.87	-1.500			
0.8401	53766.27	3.0450	3.0451	-0.1487	27.49	1.87	-1.500			
0.8405	53794.66	3.0420	3.0419	-0.1471	27.50	1.88	-1.500			
0.8410	53822.67	3.0390	3.0391	-0.1465	27.50	1.88	-1.500			
0.8414	53850.46	3.0360	3.0359	-0.1449	27.51	1.89	-1.500			
0.8418	53878.14	3.0330	3.0329	-0.1447	27.52	1.90	-1.500			
0.8423	53905.88	3.0300	3.0300	-0.1443	27.52	1.90	-1.500			
0.8427	53933.37	3.0270	3.0271	-0.1438	27.53	1.91	-1.500			
0.8431	53961.33	3.0240	3.0239	-0.1434	27.53	1.91	-1.500			
0.8436	53989.06	3.0210	3.0209	-0.1424	27.54	1.92	-1.500			
0.8440	54016.25	3.0180	3.0181	-0.1408	27.54	1.92	-1.500			
0.8444	54042.90	3.0150	3.0151	-0.1404	27.55	1.93	-1.500			
0.8448	54069.90	3.0120	3.0120	-0.1397	27.56	1.94	-1.500			
0.8453	54096.21	3.0090	3.0089	-0.1391	27.56	1.94	-1.500			
0.8457	54122.96	3.0060	3.0060	-0.1396	27.57	1.95	-1.500			
0.8461	54150.03	3.0030	3.0029	-0.1446	27.57	1.95	-1.500			
