Ah_balance (normalized)	Ah_balance (mAh)	Voltage - fit (V)	Voltage -  interpolate (V)	dQ/dV (1/V)	Temperature (°C)	Temperature - diff (°C)	Current (C)	R_DC 0ms (mOhm)	R_DC 50ms (mOhm)	R_DC 50 ms PEC (mOhm)
0.0002	11.69	4.1650	4.1649	-0.3279	25.90	0.02	-0.050			
0.0005	33.41	4.1640	4.1638	-0.3508	25.89	0.01	-0.050			
0.0009	56.89	4.1630	4.1628	-0.3773	25.88	-0.00	-0.050			
0.0013	82.10	4.1620	4.1618	-0.4007	25.87	-0.01	-0.050			
0.0017	109.35	4.1610	4.1609	-0.4238	25.86	-0.02	-0.050			
0.0022	137.99	4.1600	4.1599	-0.4430	25.85	-0.03	-0.050			
0.0026	167.64	4.1590	4.1589	-0.4593	25.85	-0.03	-0.050			
0.0031	197.98	4.1580	4.1580	-0.4738	25.84	-0.04	-0.050			
0.0036	229.46	4.1570	4.1569	-0.4871	25.83	-0.05	-0.050			
0.0041	261.92	4.1560	4.1561	-0.4986	25.82	-0.06	-0.050			
0.0046	294.71	4.1550	4.1550	-0.5094	25.81	-0.07	-0.050			
0.0051	327.88	4.1540	4.1541	-0.5200	25.80	-0.08	-0.050			
0.0057	361.96	4.1530	4.1530	-0.5294	25.78	-0.10	-0.050			
0.0062	398.57	4.1520	4.1521	-0.5432	25.77	-0.11	-0.050			
0.0068	434.14	4.1510	4.1510	-0.5515	25.77	-0.11	-0.050			
0.0073	470.30	4.1500	4.1500	-0.5585	25.75	-0.13	-0.050			
0.0079	506.45	4.1490	4.1489	-0.5641	25.75	-0.13	-0.050			
0.0085	543.18	4.1480	4.1480	-0.5709	25.74	-0.14	-0.050			
0.0091	580.12	4.1470	4.1471	-0.5762	25.72	-0.16	-0.050			
0.0096	617.48	4.1460	4.1460	-0.5810	25.71	-0.17	-0.050			
0.0102	655.18	4.1450	4.1449	-0.5862	25.70	-0.18	-0.050			
0.0108	692.87	4.1440	4.1439	-0.5905	25.69	-0.19	-0.050			
0.0114	730.67	4.1430	4.1431	-0.5955	25.68	-0.20	-0.050			
0.0120	769.09	4.1420	4.1420	-0.5992	25.68	-0.20	-0.050			
0.0126	807.75	4.1410	4.1411	-0.6035	25.67	-0.21	-0.050			
0.0132	846.82	4.1400	4.1400	-0.6081	25.66	-0.22	-0.050			
0.0138	885.72	4.1390	4.1390	-0.6125	25.65	-0.23	-0.050			
0.0145	925.05	4.1380	4.1380	-0.6161	25.65	-0.23	-0.050			
0.0151	964.39	4.1370	4.1371	-0.6203	25.64	-0.24	-0.050			
0.0157	1004.49	4.1360	4.1360	-0.6243	25.62	-0.26	-0.050			
0.0163	1044.65	4.1350	4.1350	-0.6279	25.62	-0.26	-0.050			
0.0169	1084.78	4.1340	4.1340	-0.6309	25.62	-0.26	-0.050			
0.0176	1125.28	4.1330	4.1331	-0.6341	25.62	-0.26	-0.050			
0.0182	1166.25	4.1320	4.1320	-0.6370	25.62	-0.26	-0.050			
0.0189	1207.62	4.1310	4.1310	-0.6399	25.62	-0.26	-0.050			
0.0195	1248.73	4.1300	4.1299	-0.6432	25.62	-0.26	-0.050			
0.0202	1290.22	4.1290	4.1290	-0.6464	25.62	-0.26	-0.050	0.306	0.539	
0.0208	1331.63	4.1280	4.1281	-0.6494	25.62	-0.26	-0.050			
0.0215	1373.19	4.1270	4.1271	-0.6525	25.62	-0.26	-0.050			
0.0221	1415.40	4.1260	4.1260	-0.6552	25.62	-0.26	-0.050			
0.0228	1457.42	4.1250	4.1251	-0.6581	25.62	-0.26	-0.050			
0.0234	1499.58	4.1240	4.1240	-0.6603	25.62	-0.26	-0.050			
0.0241	1541.95	4.1230	4.1230	-0.6624	25.63	-0.25	-0.050			
0.0248	1584.53	4.1220	4.1220	-0.6642	25.63	-0.25	-0.050			
0.0254	1627.26	4.1210	4.1208	-0.6672	25.64	-0.24	-0.050			
0.0261	1669.96	4.1200	4.1200	-0.6689	25.64	-0.24	-0.050			
0.0268	1712.54	4.1190	4.1189	-0.6712	25.64	-0.24	-0.050			
0.0274	1755.60	4.1180	4.1180	-0.6726	25.64	-0.24	-0.050			
0.0281	1799.17	4.1170	4.1171	-0.6742	25.65	-0.23	-0.050			
0.0288	1842.09	4.1160	4.1160	-0.6769	25.65	-0.23	-0.050			
0.0295	1885.66	4.1150	4.1149	-0.6798	25.65	-0.23	-0.050			
0.0301	1929.04	4.1140	4.1141	-0.6823	25.66	-0.22	-0.050			
0.0308	1972.93	4.1130	4.1132	-0.6842	25.65	-0.23	-0.050			
0.0315	2016.95	4.1120	4.1120	-0.6863	25.66	-0.22	-0.050			
0.0322	2061.12	4.1110	4.1111	-0.6882	25.66	-0.22	-0.050			
0.0329	2104.98	4.1100	4.1100	-0.6903	25.66	-0.22	-0.050			
0.0336	2148.84	4.1090	4.1091	-0.6920	25.66	-0.22	-0.050			
0.0343	2193.29	4.1080	4.1079	-0.6939	25.66	-0.22	-0.050			
0.0350	2237.69	4.1070	4.1068	-0.6959	25.66	-0.22	-0.050			
0.0357	2282.35	4.1060	4.1060	-0.6987	25.66	-0.22	-0.050			
0.0364	2327.28	4.1050	4.1050	-0.7009	25.67	-0.21	-0.050			
0.0371	2372.59	4.1040	4.1041	-0.7012	25.66	-0.22	-0.050			
0.0378	2417.71	4.1030	4.1030	-0.7032	25.66	-0.22	-0.050			
0.0385	2462.81	4.1020	4.1020	-0.7051	25.67	-0.21	-0.050			
0.0392	2507.97	4.1010	4.1010	-0.7068	25.67	-0.21	-0.050			
0.0399	2553.21	4.1000	4.1000	-0.7077	25.67	-0.21	-0.050	0.451	0.555	
0.0406	2598.78	4.0990	4.0989	-0.7092	25.67	-0.21	-0.050			
0.0413	2644.20	4.0980	4.0980	-0.7104	25.68	-0.20	-0.050			
0.0420	2689.94	4.0970	4.0971	-0.7125	25.68	-0.20	-0.050			
0.0427	2735.14	4.0960	4.0961	-0.7126	25.68	-0.20	-0.050			
0.0435	2780.81	4.0950	4.0950	-0.7142	25.68	-0.20	-0.050			
0.0442	2826.65	4.0940	4.0940	-0.7154	25.68	-0.20	-0.050			
0.0449	2872.41	4.0930	4.0930	-0.7169	25.69	-0.19	-0.050			
0.0456	2918.52	4.0920	4.0919	-0.7188	25.69	-0.19	-0.050			
0.0463	2964.41	4.0910	4.0910	-0.7199	25.70	-0.18	-0.050			
0.0470	3010.42	4.0900	4.0900	-0.7211	25.70	-0.18	-0.050			
0.0478	3056.41	4.0890	4.0891	-0.7226	25.70	-0.18	-0.050			
0.0485	3102.71	4.0880	4.0880	-0.7233	25.70	-0.18	-0.050			
0.0492	3149.19	4.0870	4.0871	-0.7257	25.70	-0.18	-0.050			
0.0499	3195.58	4.0860	4.0859	-0.7272	25.70	-0.18	-0.050			
0.0507	3242.20	4.0850	4.0850	-0.7288	25.70	-0.18	-0.050			
0.0514	3289.15	4.0840	4.0839	-0.7313	25.70	-0.18	-0.050			
0.0521	3335.98	4.0830	4.0830	-0.7330	25.70	-0.18	-0.050			
0.0529	3382.80	4.0820	4.0820	-0.7333	25.69	-0.19	-0.050			
0.0536	3429.71	4.0810	4.0809	-0.7348	25.68	-0.20	-0.050			
0.0543	3476.77	4.0800	4.0800	-0.7367	25.68	-0.20	-0.050			
0.0551	3524.17	4.0790	4.0791	-0.7382	25.68	-0.20	-0.050			
0.0558	3571.60	4.0780	4.0780	-0.7389	25.67	-0.21	-0.050			
0.0565	3619.01	4.0770	4.0770	-0.7395	25.66	-0.22	-0.050			
0.0573	3666.60	4.0760	4.0760	-0.7417	25.66	-0.22	-0.050			
0.0580	3713.97	4.0750	4.0749	-0.7423	25.65	-0.23	-0.050			
0.0588	3761.40	4.0740	4.0740	-0.7441	25.64	-0.24	-0.050			
0.0595	3809.19	4.0730	4.0730	-0.7451	25.64	-0.24	-0.050			
0.0603	3856.71	4.0720	4.0720	-0.7465	25.64	-0.24	-0.050	0.353	0.477	
0.0610	3904.76	4.0710	4.0710	-0.7474	25.63	-0.25	-0.050			
0.0618	3952.59	4.0700	4.0700	-0.7477	25.62	-0.26	-0.050			
0.0625	4000.50	4.0690	4.0689	-0.7491	25.60	-0.28	-0.050			
0.0633	4048.22	4.0680	4.0679	-0.7509	25.60	-0.28	-0.050			
0.0640	4096.40	4.0670	4.0669	-0.7522	25.58	-0.30	-0.050			
0.0648	4144.38	4.0660	4.0660	-0.7528	25.57	-0.31	-0.050			
0.0655	4192.73	4.0650	4.0650	-0.7545	25.56	-0.32	-0.050			
0.0663	4240.87	4.0640	4.0641	-0.7557	25.56	-0.32	-0.050			
0.0670	4289.38	4.0630	4.0630	-0.7566	25.56	-0.32	-0.050			
0.0678	4338.20	4.0620	4.0620	-0.7576	25.55	-0.33	-0.050			
0.0685	4386.69	4.0610	4.0610	-0.7584	25.54	-0.34	-0.050			
0.0693	4435.07	4.0600	4.0600	-0.7598	25.54	-0.34	-0.050			
0.0701	4483.99	4.0590	4.0590	-0.7607	25.52	-0.36	-0.050			
0.0708	4532.94	4.0580	4.0581	-0.7618	25.52	-0.36	-0.050			
0.0716	4581.96	4.0570	4.0570	-0.7617	25.52	-0.36	-0.050			
0.0724	4630.64	4.0560	4.0559	-0.7611	25.51	-0.37	-0.050			
0.0731	4679.45	4.0550	4.0550	-0.7615	25.50	-0.38	-0.050			
0.0739	4728.20	4.0540	4.0540	-0.7617	25.50	-0.38	-0.050			
0.0746	4776.77	4.0530	4.0530	-0.7623	25.50	-0.38	-0.050			
0.0754	4825.95	4.0520	4.0521	-0.7625	25.49	-0.39	-0.050			
0.0762	4874.49	4.0510	4.0510	-0.7641	25.48	-0.40	-0.050			
0.0769	4923.27	4.0500	4.0501	-0.7651	25.48	-0.40	-0.050			
0.0777	4971.84	4.0490	4.0490	-0.7660	25.47	-0.41	-0.050			
0.0784	5020.67	4.0480	4.0480	-0.7664	25.46	-0.42	-0.050			
0.0792	5069.41	4.0470	4.0469	-0.7682	25.46	-0.42	-0.050			
0.0800	5118.45	4.0460	4.0459	-0.7704	25.46	-0.42	-0.050	0.362	0.513	
0.0807	5167.51	4.0450	4.0450	-0.7719	25.46	-0.42	-0.050			
0.0815	5217.12	4.0440	4.0439	-0.7737	25.46	-0.42	-0.050			
0.0823	5266.56	4.0430	4.0430	-0.7761	25.46	-0.42	-0.050			
0.0831	5316.70	4.0420	4.0419	-0.7769	25.47	-0.41	-0.050			
0.0839	5366.64	4.0410	4.0410	-0.7783	25.48	-0.40	-0.050			
0.0846	5416.51	4.0400	4.0400	-0.7795	25.48	-0.40	-0.050			
0.0854	5466.52	4.0390	4.0390	-0.7812	25.49	-0.39	-0.050			
0.0862	5516.98	4.0380	4.0380	-0.7833	25.50	-0.38	-0.050			
0.0870	5567.45	4.0370	4.0371	-0.7852	25.50	-0.38	-0.050			
0.0878	5617.61	4.0360	4.0360	-0.7858	25.51	-0.37	-0.050			
0.0886	5668.17	4.0350	4.0350	-0.7868	25.52	-0.36	-0.050			
0.0894	5718.46	4.0340	4.0341	-0.7877	25.53	-0.35	-0.050			
0.0901	5768.74	4.0330	4.0331	-0.7887	25.54	-0.34	-0.050			
0.0909	5819.41	4.0320	4.0319	-0.7900	25.54	-0.34	-0.050			
0.0917	5869.91	4.0310	4.0309	-0.7904	25.54	-0.34	-0.050			
0.0925	5920.04	4.0300	4.0300	-0.7909	25.56	-0.32	-0.050			
0.0933	5970.84	4.0290	4.0292	-0.7923	25.56	-0.32	-0.050			
0.0941	6021.54	4.0280	4.0280	-0.7938	25.56	-0.32	-0.050			
0.0949	6072.15	4.0270	4.0269	-0.7951	25.58	-0.30	-0.050			
0.0957	6122.83	4.0260	4.0260	-0.7963	25.58	-0.30	-0.050			
0.0965	6174.07	4.0250	4.0249	-0.7981	25.58	-0.30	-0.050			
0.0973	6225.46	4.0240	4.0240	-0.7997	25.60	-0.28	-0.050			
0.0981	6277.31	4.0230	4.0230	-0.7995	25.60	-0.28	-0.050			
0.0989	6328.54	4.0220	4.0221	-0.8001	25.60	-0.28	-0.050			
0.0997	6379.86	4.0210	4.0210	-0.8013	25.61	-0.27	-0.050	0.381	0.545	
0.1005	6431.03	4.0200	4.0199	-0.8017	25.62	-0.26	-0.050			
0.1013	6482.51	4.0190	4.0190	-0.8025	25.62	-0.26	-0.050			
0.1021	6533.69	4.0180	4.0181	-0.8037	25.62	-0.26	-0.050			
0.1029	6584.69	4.0170	4.0170	-0.8063	25.62	-0.26	-0.050			
0.1037	6636.10	4.0160	4.0160	-0.8078	25.62	-0.26	-0.050			
0.1045	6687.97	4.0150	4.0151	-0.8090	25.62	-0.26	-0.050			
0.1053	6739.79	4.0140	4.0141	-0.8093	25.63	-0.25	-0.050			
0.1061	6791.57	4.0130	4.0130	-0.8103	25.62	-0.26	-0.050			
0.1069	6843.36	4.0120	4.0119	-0.8118	25.62	-0.26	-0.050			
0.1077	6895.37	4.0110	4.0110	-0.8136	25.62	-0.26	-0.050			
0.1086	6947.49	4.0100	4.0100	-0.8137	25.61	-0.27	-0.050			
0.1094	6999.79	4.0090	4.0090	-0.8161	25.60	-0.28	-0.050			
0.1102	7052.23	4.0080	4.0081	-0.8161	25.60	-0.28	-0.050			
0.1110	7104.35	4.0070	4.0070	-0.8177	25.59	-0.29	-0.050			
0.1118	7156.98	4.0060	4.0061	-0.8188	25.58	-0.30	-0.050			
0.1126	7209.52	4.0050	4.0050	-0.8205	25.58	-0.30	-0.050			
0.1135	7262.20	4.0040	4.0039	-0.8222	25.56	-0.32	-0.050			
0.1143	7315.24	4.0030	4.0030	-0.8234	25.56	-0.32	-0.050			
0.1151	7368.12	4.0020	4.0020	-0.8243	25.56	-0.32	-0.050			
0.1159	7420.11	4.0010	4.0010	-0.8253	25.54	-0.34	-0.050			
0.1168	7472.92	4.0000	3.9999	-0.8261	25.54	-0.34	-0.050			
0.1176	7525.59	3.9990	3.9991	-0.8271	25.54	-0.34	-0.050			
0.1184	7578.42	3.9980	3.9979	-0.8279	25.52	-0.36	-0.050			
0.1192	7630.71	3.9970	3.9970	-0.8299	25.52	-0.36	-0.050			
0.1201	7683.81	3.9960	3.9960	-0.8330	25.52	-0.36	-0.050	0.354	0.512	
0.1209	7737.28	3.9950	3.9950	-0.8362	25.52	-0.36	-0.050			
0.1217	7790.94	3.9940	3.9940	-0.8394	25.52	-0.36	-0.050			
0.1226	7844.68	3.9930	3.9930	-0.8402	25.52	-0.36	-0.050			
0.1234	7898.78	3.9920	3.9919	-0.8422	25.52	-0.36	-0.050			
0.1243	7953.04	3.9910	3.9911	-0.8429	25.52	-0.36	-0.050			
0.1251	8007.83	3.9900	3.9899	-0.8439	25.52	-0.36	-0.050			
0.1260	8061.88	3.9890	3.9889	-0.8448	25.52	-0.36	-0.050			
0.1268	8116.23	3.9880	3.9878	-0.8452	25.52	-0.36	-0.050			
0.1277	8170.81	3.9870	3.9870	-0.8450	25.52	-0.36	-0.050			
0.1285	8225.13	3.9860	3.9860	-0.8449	25.52	-0.36	-0.050			
0.1294	8279.48	3.9850	3.9850	-0.8451	25.53	-0.35	-0.050			
0.1302	8333.54	3.9840	3.9842	-0.8457	25.52	-0.36	-0.050			
0.1311	8387.50	3.9830	3.9830	-0.8462	25.52	-0.36	-0.050			
0.1319	8441.59	3.9820	3.9820	-0.8463	25.52	-0.36	-0.050			
0.1327	8495.23	3.9810	3.9809	-0.8456	25.52	-0.36	-0.050			
0.1336	8549.33	3.9800	3.9799	-0.8471	25.52	-0.36	-0.050			
0.1344	8603.36	3.9790	3.9790	-0.8476	25.51	-0.37	-0.050			
0.1353	8657.05	3.9780	3.9779	-0.8474	25.51	-0.37	-0.050			
0.1361	8710.72	3.9770	3.9770	-0.8474	25.51	-0.37	-0.050			
0.1369	8764.71	3.9760	3.9760	-0.8490	25.52	-0.36	-0.050			
0.1378	8819.11	3.9750	3.9749	-0.8505	25.52	-0.36	-0.050			
0.1387	8873.83	3.9740	3.9740	-0.8517	25.52	-0.36	-0.050			
0.1395	8928.83	3.9730	3.9731	-0.8540	25.52	-0.36	-0.050			
0.1404	8983.25	3.9720	3.9721	-0.8554	25.52	-0.36	-0.050			
0.1412	9038.44	3.9710	3.9711	-0.8578	25.52	-0.36	-0.050			
0.1421	9093.46	3.9700	3.9700	-0.8595	25.52	-0.36	-0.050			
0.1429	9148.36	3.9690	3.9689	-0.8603	25.52	-0.36	-0.050			
0.1438	9203.60	3.9680	3.9680	-0.8618	25.52	-0.36	-0.050			
0.1447	9259.09	3.9670	3.9670	-0.8636	25.52	-0.36	-0.050			
0.1455	9314.33	3.9660	3.9660	-0.8646	25.53	-0.35	-0.050			
0.1464	9369.65	3.9650	3.9651	-0.8656	25.53	-0.35	-0.050			
0.1473	9425.05	3.9640	3.9640	-0.8657	25.54	-0.34	-0.050			
0.1481	9480.56	3.9630	3.9630	-0.8666	25.54	-0.34	-0.050			
0.1490	9536.19	3.9620	3.9620	-0.8677	25.54	-0.34	-0.050			
0.1499	9591.60	3.9610	3.9610	-0.8679	25.54	-0.34	-0.050			
0.1507	9647.27	3.9600	3.9600	-0.8686	25.54	-0.34	-0.050			
0.1516	9702.70	3.9590	3.9591	-0.8711	25.54	-0.34	-0.050			
0.1525	9758.61	3.9580	3.9581	-0.8717	25.55	-0.33	-0.050			
0.1533	9814.33	3.9570	3.9570	-0.8727	25.56	-0.32	-0.050			
0.1542	9870.47	3.9560	3.9560	-0.8731	25.56	-0.32	-0.050			
0.1551	9926.21	3.9550	3.9550	-0.8740	25.57	-0.31	-0.050			
0.1560	9982.37	3.9540	3.9539	-0.8756	25.58	-0.30	-0.050			
0.1569	10038.42	3.9530	3.9529	-0.8763	25.58	-0.30	-0.050			
0.1577	10094.49	3.9520	3.9520	-0.8766	25.58	-0.30	-0.050			
0.1586	10150.47	3.9510	3.9510	-0.8778	25.58	-0.30	-0.050			
0.1595	10206.51	3.9500	3.9500	-0.8784	25.58	-0.30	-0.050			
0.1604	10263.04	3.9490	3.9490	-0.8789	25.58	-0.30	-0.050	0.258	0.515	
0.1612	10319.29	3.9480	3.9480	-0.8804	25.58	-0.30	-0.050			
0.1621	10375.55	3.9470	3.9470	-0.8809	25.58	-0.30	-0.050			
0.1630	10431.93	3.9460	3.9460	-0.8829	25.58	-0.30	-0.050			
0.1639	10488.53	3.9450	3.9451	-0.8840	25.57	-0.31	-0.050			
0.1648	10545.22	3.9440	3.9440	-0.8851	25.56	-0.32	-0.050			
0.1657	10601.77	3.9430	3.9431	-0.8863	25.56	-0.32	-0.050			
0.1665	10658.34	3.9420	3.9419	-0.8872	25.56	-0.32	-0.050			
0.1674	10715.33	3.9410	3.9409	-0.8878	25.55	-0.33	-0.050			
0.1683	10772.40	3.9400	3.9401	-0.8890	25.54	-0.34	-0.050			
0.1692	10828.79	3.9390	3.9389	-0.8896	25.54	-0.34	-0.050			
0.1701	10885.78	3.9380	3.9380	-0.8917	25.54	-0.34	-0.050			
0.1710	10943.01	3.9370	3.9370	-0.8941	25.54	-0.34	-0.050			
0.1719	11000.26	3.9360	3.9361	-0.8953	25.54	-0.34	-0.050			
0.1728	11057.96	3.9350	3.9350	-0.8961	25.54	-0.34	-0.050			
0.1737	11115.25	3.9340	3.9339	-0.8966	25.54	-0.34	-0.050			
0.1746	11172.94	3.9330	3.9329	-0.8975	25.55	-0.33	-0.050			
0.1755	11230.39	3.9320	3.9319	-0.8985	25.56	-0.32	-0.050			
0.1764	11287.95	3.9310	3.9310	-0.8993	25.56	-0.32	-0.050			
0.1773	11345.64	3.9300	3.9300	-0.9004	25.57	-0.31	-0.050			
0.1782	11403.53	3.9290	3.9289	-0.9011	25.58	-0.30	-0.050			
0.1791	11461.18	3.9280	3.9281	-0.9011	25.58	-0.30	-0.050			
0.1800	11518.96	3.9270	3.9270	-0.9002	25.58	-0.30	-0.050	0.483	0.546	
0.1809	11576.60	3.9260	3.9260	-0.9008	25.60	-0.28	-0.050			
0.1818	11634.35	3.9250	3.9251	-0.9023	25.60	-0.28	-0.050			
0.1827	11691.93	3.9240	3.9240	-0.9031	25.59	-0.29	-0.050			
0.1836	11749.69	3.9230	3.9230	-0.9032	25.60	-0.28	-0.050			
0.1845	11807.66	3.9220	3.9220	-0.9036	25.60	-0.28	-0.050			
0.1854	11865.56	3.9210	3.9211	-0.9033	25.59	-0.29	-0.050			
0.1863	11923.11	3.9200	3.9199	-0.9037	25.59	-0.29	-0.050			
0.1872	11980.91	3.9190	3.9190	-0.9038	25.59	-0.29	-0.050			
0.1881	12038.88	3.9180	3.9179	-0.9026	25.59	-0.29	-0.050			
0.1890	12096.86	3.9170	3.9169	-0.9032	25.59	-0.29	-0.050			
0.1899	12154.54	3.9160	3.9160	-0.9040	25.58	-0.30	-0.050			
0.1908	12212.58	3.9150	3.9151	-0.9052	25.58	-0.30	-0.050			
0.1917	12270.49	3.9140	3.9141	-0.9056	25.58	-0.30	-0.050			
0.1926	12327.99	3.9130	3.9130	-0.9066	25.58	-0.30	-0.050			
0.1935	12385.94	3.9120	3.9120	-0.9077	25.58	-0.30	-0.050			
0.1944	12444.15	3.9110	3.9110	-0.9073	25.58	-0.30	-0.050			
0.1954	12502.46	3.9100	3.9101	-0.9092	25.58	-0.30	-0.050			
0.1963	12560.68	3.9090	3.9090	-0.9092	25.58	-0.30	-0.050			
0.1972	12618.86	3.9080	3.9079	-0.9101	25.58	-0.30	-0.050			
0.1981	12676.89	3.9070	3.9070	-0.9108	25.58	-0.30	-0.050			
0.1990	12734.92	3.9060	3.9060	-0.9113	25.58	-0.30	-0.050			
0.1999	12793.02	3.9050	3.9050	-0.9128	25.58	-0.30	-0.050	0.316	0.478	
0.2008	12851.40	3.9040	3.9041	-0.9147	25.58	-0.30	-0.050			
0.2017	12910.13	3.9030	3.9031	-0.9174	25.57	-0.31	-0.050			
0.2026	12969.05	3.9020	3.9021	-0.9185	25.58	-0.30	-0.050			
0.2036	13027.96	3.9010	3.9009	-0.9198	25.58	-0.30	-0.050			
0.2045	13087.00	3.9000	3.9001	-0.9201	25.58	-0.30	-0.050			
0.2054	13146.02	3.8990	3.8990	-0.9223	25.58	-0.30	-0.050			
0.2063	13205.29	3.8980	3.8980	-0.9233	25.57	-0.31	-0.050			
0.2073	13264.42	3.8970	3.8969	-0.9229	25.57	-0.31	-0.050			
0.2082	13323.62	3.8960	3.8960	-0.9231	25.56	-0.32	-0.050			
0.2091	13382.84	3.8950	3.8950	-0.9235	25.56	-0.32	-0.050			
0.2100	13442.00	3.8940	3.8940	-0.9238	25.56	-0.32	-0.050			
0.2110	13501.16	3.8930	3.8931	-0.9243	25.55	-0.33	-0.050			
0.2119	13560.52	3.8920	3.8920	-0.9254	25.54	-0.34	-0.050			
0.2128	13619.81	3.8910	3.8910	-0.9262	25.53	-0.35	-0.050			
0.2137	13679.10	3.8900	3.8899	-0.9258	25.52	-0.36	-0.050			
0.2147	13738.56	3.8890	3.8890	-0.9263	25.52	-0.36	-0.050			
0.2156	13798.01	3.8880	3.8880	-0.9256	25.50	-0.38	-0.050			
0.2165	13856.77	3.8870	3.8869	-0.9253	25.50	-0.38	-0.050			
0.2174	13915.77	3.8860	3.8860	-0.9257	25.48	-0.40	-0.050			
0.2184	13974.87	3.8850	3.8850	-0.9254	25.48	-0.40	-0.050			
0.2193	14034.21	3.8840	3.8839	-0.9258	25.48	-0.40	-0.050			
0.2202	14093.16	3.8830	3.8830	-0.9272	25.47	-0.41	-0.050	0.379	0.568	
0.2211	14152.59	3.8820	3.8820	-0.9284	25.46	-0.42	-0.050			
0.2221	14212.07	3.8810	3.8811	-0.9298	25.46	-0.42	-0.050			
0.2230	14271.24	3.8800	3.8799	-0.9313	25.46	-0.42	-0.050			
0.2239	14330.64	3.8790	3.8790	-0.9320	25.46	-0.42	-0.050			
0.2249	14390.54	3.8780	3.8778	-0.9337	25.46	-0.42	-0.050			
0.2258	14450.43	3.8770	3.8771	-0.9346	25.46	-0.42	-0.050			
0.2267	14510.14	3.8760	3.8760	-0.9364	25.47	-0.41	-0.050			
0.2277	14570.13	3.8750	3.8749	-0.9380	25.48	-0.40	-0.050			
0.2286	14630.17	3.8740	3.8740	-0.9386	25.48	-0.40	-0.050			
0.2295	14690.34	3.8730	3.8732	-0.9399	25.48	-0.40	-0.050			
0.2305	14750.69	3.8720	3.8720	-0.9414	25.49	-0.39	-0.050			
0.2314	14810.94	3.8710	3.8711	-0.9429	25.50	-0.38	-0.050			
0.2324	14871.72	3.8700	3.8701	-0.9447	25.50	-0.38	-0.050			
0.2333	14932.02	3.8690	3.8690	-0.9452	25.52	-0.36	-0.050			
0.2343	14993.01	3.8680	3.8681	-0.9466	25.52	-0.36	-0.050			
0.2352	15052.99	3.8670	3.8670	-0.9477	25.54	-0.34	-0.050			
0.2362	15113.99	3.8660	3.8660	-0.9488	25.54	-0.34	-0.050			
0.2371	15174.92	3.8650	3.8650	-0.9495	25.55	-0.33	-0.050			
0.2381	15235.75	3.8640	3.8640	-0.9500	25.56	-0.32	-0.050			
0.2390	15296.51	3.8630	3.8630	-0.9505	25.56	-0.32	-0.050			
0.2400	15357.41	3.8620	3.8619	-0.9511	25.56	-0.32	-0.050	0.445	0.522	
0.2409	15418.32	3.8610	3.8611	-0.9511	25.57	-0.31	-0.050			
0.2419	15479.35	3.8600	3.8599	-0.9509	25.58	-0.30	-0.050			
0.2428	15540.95	3.8590	3.8589	-0.9501	25.58	-0.30	-0.050			
0.2438	15601.52	3.8580	3.8579	-0.9510	25.59	-0.29	-0.050			
0.2447	15662.34	3.8570	3.8571	-0.9512	25.60	-0.28	-0.050			
0.2457	15723.00	3.8560	3.8560	-0.9508	25.60	-0.28	-0.050			
0.2466	15783.88	3.8550	3.8550	-0.9519	25.60	-0.28	-0.050			
0.2476	15844.98	3.8540	3.8539	-0.9517	25.60	-0.28	-0.050			
0.2485	15905.48	3.8530	3.8530	-0.9522	25.60	-0.28	-0.050			
0.2495	15966.32	3.8520	3.8520	-0.9524	25.60	-0.28	-0.050			
0.2504	16026.89	3.8510	3.8510	-0.9532	25.60	-0.28	-0.050			
0.2514	16088.02	3.8500	3.8499	-0.9538	25.60	-0.28	-0.050			
0.2523	16148.86	3.8490	3.8489	-0.9543	25.60	-0.28	-0.050			
0.2533	16209.95	3.8480	3.8481	-0.9542	25.62	-0.26	-0.050			
0.2542	16270.89	3.8470	3.8470	-0.9548	25.62	-0.26	-0.050			
0.2552	16332.41	3.8460	3.8461	-0.9559	25.62	-0.26	-0.050			
0.2561	16393.50	3.8450	3.8451	-0.9577	25.62	-0.26	-0.050			
0.2571	16454.93	3.8440	3.8440	-0.9591	25.62	-0.26	-0.050			
0.2581	16516.44	3.8430	3.8431	-0.9595	25.63	-0.25	-0.050			
0.2590	16578.18	3.8420	3.8420	-0.9591	25.63	-0.25	-0.050			
0.2600	16640.07	3.8410	3.8410	-0.9602	25.63	-0.25	-0.050	0.326	0.446	
0.2610	16701.37	3.8400	3.8399	-0.9611	25.63	-0.25	-0.050			
0.2619	16763.21	3.8390	3.8391	-0.9613	25.63	-0.25	-0.050			
0.2629	16824.27	3.8380	3.8379	-0.9601	25.63	-0.25	-0.050			
0.2638	16885.54	3.8370	3.8371	-0.9608	25.62	-0.26	-0.050			
0.2648	16947.14	3.8360	3.8359	-0.9620	25.62	-0.26	-0.050			
0.2658	17009.03	3.8350	3.8351	-0.9622	25.62	-0.26	-0.050			
0.2667	17070.72	3.8340	3.8340	-0.9618	25.61	-0.27	-0.050			
