Relative time (s)	Voltage (V)	Temperature (°C)	
10.861	3.1216	25.99	
70.861	3.1615	26.01	
130.861	3.1731	25.99	
190.861	3.1795	25.96	
250.861	3.1840	25.93	
310.861	3.1876	25.89	
370.861	3.1902	25.84	
430.861	3.1928	25.79	
490.861	3.1950	25.75	
550.861	3.1967	25.69	
610.861	3.1983	25.64	
670.861	3.2002	25.59	
730.861	3.2016	25.55	
790.861	3.2030	25.50	
850.861	3.2045	25.45	
903.306	3.2054	25.41	
