Relative time (s)	Voltage (V)	Temperature (°C)	
59.060	3.1536	26.03	
119.060	3.1665	26.01	
179.060	3.1733	25.98	
239.060	3.1780	25.94	
299.060	3.1814	25.89	
359.060	3.1843	25.85	
419.060	3.1867	25.81	
479.060	3.1888	25.77	
539.060	3.1908	25.71	
599.060	3.1926	25.67	
659.060	3.1942	25.63	
719.060	3.1957	25.57	
779.060	3.1971	25.53	
839.060	3.1985	25.48	
899.060	3.1999	25.45	
903.301	3.2000	25.44	
