Ah_balance (normalized)	Ah_balance (mAh)	Voltage - fit (V)	Voltage -  interpolate (V)	dQ/dV (1/V)	Temperature (°C)	Temperature - diff (°C)	Current (C)	R_DC 0ms (mOhm)	R_DC 50ms (mOhm)	R_DC 50 ms PEC (mOhm)
0.0004	27.92	4.1650	4.1649	-0.1501	24.93	0.02	-0.750			
0.0010	61.14	4.1620	4.1618	-0.1972	24.93	0.02	-0.750			
0.0016	104.17	4.1590	4.1590	-0.2434	24.92	0.01	-0.750			
0.0024	155.52	4.1560	4.1561	-0.2876	24.92	0.01	-0.750			
0.0034	214.86	4.1530	4.1530	-0.3346	24.92	0.01	-0.750			
0.0044	283.69	4.1500	4.1500	-0.3778	24.92	0.01	-0.750			
0.0056	360.53	4.1470	4.1470	-0.4199	24.91	0.00	-0.750			
0.0070	445.45	4.1440	4.1439	-0.4627	24.91	0.00	-0.750			
0.0084	539.41	4.1410	4.1410	-0.5012	24.91	-0.00	-0.750			
0.0100	640.41	4.1380	4.1380	-0.5349	24.90	-0.01	-0.750			
0.0117	747.64	4.1350	4.1351	-0.5680	24.90	-0.01	-0.750			
0.0134	858.76	4.1320	4.1321	-0.5970	24.90	-0.01	-0.750			
0.0153	978.67	4.1290	4.1289	-0.6223	24.89	-0.02	-0.750			
0.0172	1101.83	4.1260	4.1260	-0.6424	24.89	-0.02	-0.750			
0.0192	1226.62	4.1230	4.1230	-0.6593	24.88	-0.03	-0.750			
0.0212	1356.91	4.1200	4.1200	-0.6764	24.88	-0.03	-0.750			
0.0233	1488.09	4.1170	4.1169	-0.6864	24.88	-0.03	-0.750			
0.0253	1620.72	4.1140	4.1139	-0.6967	24.87	-0.04	-0.750			
0.0274	1755.57	4.1110	4.1111	-0.7051	24.87	-0.04	-0.750			
0.0296	1892.83	4.1080	4.1079	-0.7179	24.86	-0.05	-0.750			
0.0318	2032.45	4.1050	4.1051	-0.7255	24.86	-0.05	-0.750			
0.0339	2171.80	4.1020	4.1018	-0.7325	24.86	-0.05	-0.750			
0.0361	2313.28	4.0990	4.0990	-0.7403	24.86	-0.05	-0.750			
0.0384	2456.36	4.0960	4.0960	-0.7459	24.86	-0.05	-0.750			
0.0406	2599.61	4.0930	4.0930	-0.7497	24.86	-0.05	-0.750			
0.0429	2746.48	4.0900	4.0900	-0.7571	24.86	-0.05	-0.750			
0.0452	2891.13	4.0870	4.0871	-0.7582	24.86	-0.05	-0.750			
0.0475	3037.37	4.0840	4.0840	-0.7629	24.86	-0.05	-0.750			
0.0497	3182.81	4.0810	4.0810	-0.7663	24.86	-0.05	-0.750			
0.0520	3330.83	4.0780	4.0780	-0.7695	24.86	-0.05	-0.750			
0.0544	3480.44	4.0750	4.0749	-0.7727	24.86	-0.05	-0.750			
0.0568	3632.93	4.0720	4.0719	-0.7589	24.86	-0.05	-0.750			
0.0591	3784.20	4.0690	4.0689	-0.7355	24.86	-0.05	-0.750			
0.0612	3918.88	4.0660	4.0661	-0.7195	24.86	-0.05	-0.750			
0.0633	4052.67	4.0630	4.0635	-0.7209	24.86	-0.05	-0.750			
0.0653	4182.18	4.0600	4.0594	-0.7238	24.86	-0.05	-0.750			
0.0675	4320.63	4.0570	4.0567	-0.7390	24.86	-0.05	-0.750			
0.0697	4462.06	4.0540	4.0544	-0.7557	24.86	-0.05	-0.750			
0.0721	4611.60	4.0510	4.0510	-0.7819	24.86	-0.05	-0.750			
0.0746	4774.23	4.0480	4.0480	-0.8068	24.86	-0.05	-0.750			
0.0770	4926.58	4.0450	4.0449	-0.8039	24.86	-0.05	-0.750			
0.0794	5083.49	4.0420	4.0421	-0.8122	24.86	-0.05	-0.750			
0.0818	5237.74	4.0390	4.0390	-0.8077	24.86	-0.05	-0.750			
0.0843	5394.19	4.0360	4.0359	-0.8063	24.86	-0.05	-0.750			
0.0867	5546.65	4.0330	4.0329	-0.8062	24.87	-0.04	-0.750			
0.0891	5699.77	4.0300	4.0301	-0.8050	24.87	-0.04	-0.750			
0.0915	5853.82	4.0270	4.0270	-0.8102	24.87	-0.04	-0.750			
0.0939	6011.89	4.0240	4.0239	-0.8110	24.88	-0.03	-0.750			
0.0964	6167.62	4.0210	4.0210	-0.8161	24.88	-0.03	-0.750			
0.0988	6322.05	4.0180	4.0181	-0.8277	24.88	-0.03	-0.750			
0.1013	6484.61	4.0150	4.0150	-0.8269	24.88	-0.03	-0.750			
0.1038	6643.82	4.0120	4.0118	-0.8209	24.88	-0.03	-0.750			
0.1063	6803.28	4.0090	4.0089	-0.8205	24.88	-0.03	-0.750			
0.1088	6960.40	4.0060	4.0058	-0.8159	24.88	-0.03	-0.750			
0.1112	7115.21	4.0030	4.0030	-0.8223	24.88	-0.03	-0.750			
0.1136	7270.50	4.0000	4.0000	-0.8155	24.88	-0.03	-0.750			
0.1160	7425.41	3.9970	3.9970	-0.8158	24.89	-0.02	-0.750			
0.1186	7587.96	3.9940	3.9938	-0.8276	24.89	-0.02	-0.750			
0.1210	7747.05	3.9910	3.9911	-0.8299	24.89	-0.02	-0.750			
0.1235	7905.16	3.9880	3.9880	-0.8321	24.90	-0.01	-0.750			
0.1260	8065.52	3.9850	3.9850	-0.8300	24.90	-0.01	-0.750			
0.1285	8222.36	3.9820	3.9820	-0.8254	24.90	-0.01	-0.750			
0.1310	8383.66	3.9790	3.9789	-0.8380	24.91	-0.00	-0.750			
0.1335	8544.99	3.9760	3.9759	-0.8381	24.91	0.00	-0.750			
0.1360	8704.42	3.9730	3.9730	-0.8518	24.91	0.00	-0.750			
0.1386	8870.73	3.9700	3.9700	-0.8511	24.91	0.00	-0.750			
0.1412	9034.26	3.9670	3.9669	-0.8531	24.92	0.01	-0.750			
0.1438	9200.56	3.9640	3.9639	-0.8595	24.92	0.01	-0.750			
0.1463	9365.55	3.9610	3.9609	-0.8534	24.92	0.01	-0.750			
0.1489	9527.75	3.9580	3.9579	-0.8547	24.92	0.01	-0.750			
0.1514	9692.36	3.9550	3.9549	-0.8529	24.93	0.02	-0.750			
0.1540	9853.87	3.9520	3.9520	-0.8446	24.93	0.02	-0.750			
0.1566	10019.73	3.9490	3.9489	-0.8548	24.93	0.02	-0.750			
0.1591	10182.52	3.9460	3.9460	-0.8531	24.93	0.02	-0.750			
0.1617	10345.72	3.9430	3.9429	-0.8576	24.93	0.02	-0.750			
0.1642	10510.37	3.9400	3.9400	-0.8603	24.94	0.03	-0.750			
0.1668	10674.74	3.9370	3.9370	-0.8563	24.94	0.03	-0.750			
0.1694	10841.35	3.9340	3.9338	-0.8667	24.94	0.03	-0.750			
0.1720	11006.68	3.9310	3.9312	-0.8798	24.94	0.03	-0.750			
0.1746	11176.44	3.9280	3.9279	-0.8791	24.95	0.04	-0.750			
0.1773	11347.51	3.9250	3.9249	-0.8802	24.95	0.04	-0.750			
0.1800	11517.09	3.9220	3.9221	-0.8745	24.96	0.05	-0.750			
0.1826	11686.17	3.9190	3.9192	-0.8850	24.96	0.05	-0.750			
0.1852	11855.77	3.9160	3.9160	-0.8849	24.96	0.05	-0.750			
0.1879	12024.50	3.9130	3.9129	-0.8824	24.97	0.06	-0.750			
0.1905	12193.89	3.9100	3.9100	-0.8840	24.97	0.06	-0.750			
0.1932	12367.09	3.9070	3.9070	-0.8955	24.98	0.07	-0.750			
0.1959	12538.40	3.9040	3.9041	-0.8911	24.98	0.07	-0.750			
0.1986	12710.56	3.9010	3.9009	-0.8910	24.98	0.07	-0.750			
0.2012	12879.17	3.8980	3.8980	-0.8814	24.98	0.07	-0.750			
0.2038	13045.96	3.8950	3.8951	-0.8806	24.98	0.07	-0.750			
0.2065	13217.50	3.8920	3.8920	-0.8908	24.98	0.07	-0.750			
0.2092	13386.88	3.8890	3.8888	-0.8922	24.98	0.07	-0.750			
0.2119	13558.94	3.8860	3.8860	-0.9087	24.99	0.08	-0.750			
0.2147	13738.25	3.8830	3.8829	-0.9098	24.99	0.08	-0.750			
0.2174	13914.23	3.8800	3.8799	-0.9104	25.00	0.09	-0.750			
0.2202	14090.83	3.8770	3.8776	-0.9050	25.00	0.09	-0.750			
0.2228	14261.31	3.8740	3.8738	-0.9032	25.00	0.09	-0.750			
0.2255	14434.06	3.8710	3.8710	-0.8991	25.01	0.10	-0.750			
0.2282	14603.17	3.8680	3.8679	-0.8923	25.01	0.10	-0.750			
0.2309	14776.36	3.8650	3.8649	-0.9094	25.02	0.11	-0.750			
0.2336	14951.91	3.8620	3.8621	-0.9103	25.02	0.11	-0.750			
0.2363	15126.27	3.8590	3.8589	-0.9149	25.02	0.11	-0.750			
0.2391	15304.11	3.8560	3.8560	-0.9155	25.03	0.12	-0.750			
0.2419	15478.83	3.8530	3.8530	-0.9113	25.03	0.12	-0.750			
0.2446	15656.45	3.8500	3.8501	-0.9154	25.03	0.12	-0.750			
0.2473	15828.79	3.8470	3.8470	-0.9224	25.03	0.12	-0.750			
0.2501	16007.20	3.8440	3.8440	-0.9146	25.03	0.12	-0.750			
0.2529	16185.06	3.8410	3.8409	-0.9147	25.04	0.13	-0.750			
0.2556	16359.00	3.8380	3.8379	-0.9128	25.04	0.13	-0.750			
0.2584	16537.17	3.8350	3.8352	-0.9128	25.04	0.13	-0.750			
0.2611	16711.04	3.8320	3.8318	-0.9169	25.05	0.14	-0.750			
0.2638	16886.33	3.8290	3.8290	-0.9147	25.05	0.14	-0.750			
0.2666	17059.86	3.8260	3.8260	-0.9058	25.05	0.14	-0.750			
0.2694	17238.90	3.8230	3.8233	-0.9167	25.06	0.15	-0.750			
0.2721	17413.45	3.8200	3.8199	-0.9197	25.06	0.15	-0.750			
0.2748	17588.56	3.8170	3.8169	-0.9201	25.06	0.15	-0.750			
0.2776	17765.87	3.8140	3.8140	-0.9164	25.06	0.15	-0.750			
0.2803	17939.64	3.8110	3.8110	-0.9142	25.06	0.15	-0.750			
0.2831	18120.29	3.8080	3.8082	-0.9219	25.06	0.15	-0.750			
0.2859	18297.80	3.8050	3.8050	-0.9298	25.07	0.16	-0.750			
0.2887	18475.95	3.8020	3.8019	-0.9273	25.07	0.16	-0.750			
0.2915	18653.86	3.7990	3.7989	-0.9251	25.07	0.16	-0.750			
0.2943	18832.17	3.7960	3.7962	-0.9279	25.08	0.17	-0.750			
0.2970	19010.91	3.7930	3.7929	-0.9306	25.08	0.17	-0.750			
0.2998	19189.81	3.7900	3.7899	-0.9251	25.09	0.18	-0.750			
0.3026	19365.16	3.7870	3.7870	-0.9232	25.09	0.18	-0.750			
0.3053	19539.23	3.7840	3.7841	-0.9199	25.10	0.19	-0.750			
0.3081	19720.04	3.7810	3.7812	-0.9277	25.10	0.19	-0.750			
0.3109	19897.88	3.7780	3.7778	-0.9304	25.10	0.19	-0.750			
0.3137	20076.00	3.7750	3.7751	-0.9320	25.10	0.19	-0.750			
0.3165	20257.61	3.7720	3.7720	-0.9272	25.10	0.19	-0.750			
0.3193	20436.60	3.7690	3.7690	-0.9318	25.10	0.19	-0.750			
0.3221	20612.43	3.7660	3.7660	-0.9380	25.10	0.19	-0.750			
0.3249	20793.10	3.7630	3.7630	-0.9339	25.10	0.19	-0.750			
0.3277	20971.87	3.7600	3.7598	-0.9340	25.10	0.19	-0.750			
0.3305	21151.84	3.7570	3.7568	-0.9310	25.10	0.19	-0.750			
0.3333	21332.12	3.7540	3.7543	-0.9357	25.10	0.19	-0.750			
0.3361	21512.86	3.7510	3.7509	-0.9377	25.11	0.20	-0.750			
0.3389	21690.60	3.7480	3.7480	-0.9281	25.11	0.20	-0.750			
0.3417	21865.82	3.7450	3.7449	-0.9192	25.11	0.20	-0.750			
0.3445	22047.34	3.7420	3.7421	-0.9349	25.12	0.21	-0.750			
0.3472	22223.84	3.7390	3.7390	-0.9419	25.12	0.21	-0.750			
0.3501	22407.62	3.7360	3.7359	-0.9462	25.12	0.21	-0.750			
0.3530	22588.80	3.7330	3.7330	-0.9514	25.12	0.21	-0.750			
0.3558	22772.66	3.7300	3.7300	-0.9592	25.12	0.21	-0.750			
0.3587	22958.98	3.7270	3.7271	-0.9713	25.12	0.21	-0.750			
0.3617	23146.13	3.7240	3.7238	-0.9869	25.12	0.21	-0.750			
0.3647	23337.64	3.7210	3.7208	-0.9873	25.12	0.21	-0.750			
0.3676	23527.19	3.7180	3.7180	-0.9912	25.12	0.21	-0.750			
0.3706	23719.98	3.7150	3.7153	-1.0084	25.12	0.21	-0.750			
0.3737	23915.01	3.7120	3.7119	-1.0226	25.12	0.21	-0.750			
0.3768	24112.55	3.7090	3.7088	-1.0317	25.13	0.22	-0.750			
0.3798	24309.63	3.7060	3.7066	-1.0333	25.13	0.22	-0.750	0.435	0.513	
0.3830	24510.87	3.7030	3.7033	-1.0587	25.13	0.22	-0.750			
0.3862	24715.32	3.7000	3.6999	-1.0737	25.13	0.22	-0.750			
0.3894	24919.76	3.6970	3.6969	-1.0880	25.12	0.21	-0.750			
0.3926	25127.19	3.6940	3.6940	-1.1079	25.12	0.21	-0.750			
0.3960	25345.48	3.6910	3.6911	-1.1493	25.12	0.21	-0.750			
0.3995	25570.87	3.6880	3.6879	-1.1649	25.12	0.21	-0.750			
0.4031	25799.54	3.6850	3.6849	-1.1866	25.12	0.21	-0.750			
0.4067	26027.74	3.6820	3.6819	-1.1960	25.12	0.21	-0.750			
0.4103	26259.95	3.6790	3.6788	-1.2265	25.12	0.21	-0.750			
0.4141	26499.32	3.6760	3.6759	-1.2345	25.11	0.20	-0.750			
0.4177	26733.63	3.6730	3.6729	-1.2501	25.10	0.19	-0.750			
0.4215	26978.09	3.6700	3.6701	-1.2725	25.10	0.19	-0.750			
0.4254	27223.49	3.6670	3.6670	-1.3160	25.09	0.18	-0.750			
0.4292	27472.00	3.6640	3.6638	-1.3588	25.09	0.18	-0.750			
0.4333	27731.12	3.6610	3.6610	-1.3899	25.08	0.17	-0.750			
0.4376	28007.90	3.6580	3.6585	-1.4437	25.07	0.16	-0.750			
0.4422	28299.09	3.6550	3.6547	-1.4848	25.06	0.15	-0.750			
0.4466	28583.24	3.6520	3.6516	-1.5143	25.06	0.15	-0.750			
0.4512	28873.78	3.6490	3.6484	-1.5493	25.05	0.14	-0.750			
0.4559	29179.85	3.6460	3.6459	-1.5845	25.04	0.13	-0.750			
0.4607	29484.00	3.6430	3.6427	-1.6049	25.04	0.13	-0.750			
0.4657	29801.90	3.6400	3.6396	-1.6534	25.03	0.12	-0.750			
0.4707	30125.52	3.6370	3.6371	-1.6882	25.02	0.11	-0.750			
0.4759	30458.20	3.6340	3.6340	-1.7491	25.00	0.09	-0.750			
0.4812	30796.34	3.6310	3.6310	-1.7852	24.98	0.07	-0.750			
0.4865	31138.74	3.6280	3.6282	-1.8089	24.98	0.07	-0.750			
0.4922	31502.16	3.6250	3.6253	-1.8599	24.97	0.06	-0.750			
0.4976	31848.55	3.6220	3.6217	-1.9076	24.96	0.05	-0.750			
0.5037	32235.32	3.6190	3.6186	-1.9321	24.95	0.04	-0.750			
0.5094	32603.71	3.6160	3.6162	-1.9278	24.94	0.03	-0.750			
0.5154	32987.71	3.6130	3.6133	-1.9920	24.93	0.02	-0.750			
0.5214	33370.76	3.6100	3.6100	-2.0255	24.92	0.01	-0.750			
0.5274	33753.06	3.6070	3.6067	-2.0622	24.91	-0.00	-0.750			
0.5337	34156.57	3.6040	3.6040	-2.0892	24.90	-0.01	-0.750			
0.5402	34572.08	3.6010	3.6008	-2.1699	24.90	-0.01	-0.750			
0.5466	34981.41	3.5980	3.5981	-2.2110	24.90	-0.01	-0.750			
0.5533	35412.68	3.5950	3.5950	-2.2162	24.89	-0.02	-0.750			
0.5603	35856.26	3.5920	3.5914	-2.2590	24.88	-0.03	-0.750			
0.5669	36278.91	3.5890	3.5893	-2.3076	24.87	-0.04	-0.750			
0.5737	36716.31	3.5860	3.5859	-2.3138	24.87	-0.04	-0.750			
0.5809	37177.54	3.5830	3.5830	-2.3564	24.86	-0.05	-0.750			
0.5880	37634.09	3.5800	3.5797	-2.4469	24.85	-0.06	-0.750			
0.5953	38099.17	3.5770	3.5771	-2.3813	24.84	-0.07	-0.750			
0.6025	38558.59	3.5740	3.5743	-2.3740	24.84	-0.07	-0.750			
0.6095	39007.64	3.5710	3.5710	-2.4138	24.84	-0.07	-0.750			
0.6169	39482.58	3.5680	3.5675	-2.4126	24.83	-0.08	-0.750			
0.6243	39953.07	3.5650	3.5650	-2.4452	24.83	-0.08	-0.750			
0.6319	40444.57	3.5620	3.5624	-2.4194	24.83	-0.08	-0.750			
0.6390	40897.29	3.5590	3.5593	-2.3963	24.82	-0.09	-0.750			
0.6463	41360.00	3.5560	3.5559	-2.3897	24.82	-0.09	-0.750			
0.6533	41813.33	3.5530	3.5526	-2.3478	24.82	-0.09	-0.750			
0.6603	42257.85	3.5500	3.5506	-2.3409	24.82	-0.09	-0.750			
0.6677	42733.08	3.5470	3.5467	-2.3444	24.82	-0.09	-0.750			
0.6746	43177.43	3.5440	3.5441	-2.2882	24.82	-0.09	-0.750			
0.6815	43618.94	3.5410	3.5413	-2.2573	24.82	-0.09	-0.750			
0.6886	44069.17	3.5380	3.5383	-2.2675	24.83	-0.08	-0.750			
0.6950	44482.27	3.5350	3.5348	-2.1403	24.84	-0.07	-0.750			
0.7014	44887.79	3.5320	3.5318	-2.1112	24.85	-0.06	-0.750			
0.7077	45291.54	3.5290	3.5295	-2.0770	24.85	-0.06	-0.750			
0.7139	45686.98	3.5260	3.5260	-2.0295	24.86	-0.05	-0.750			
0.7199	46075.04	3.5230	3.5231	-1.9655	24.87	-0.04	-0.750			
0.7256	46438.33	3.5200	3.5203	-1.8999	24.88	-0.03	-0.750			
0.7314	46807.86	3.5170	3.5173	-1.8713	24.90	-0.01	-0.750			
0.7368	47156.77	3.5140	3.5138	-1.8038	24.91	0.00	-0.750			
0.7421	47495.76	3.5110	3.5108	-1.7565	24.93	0.02	-0.750			
0.7473	47829.31	3.5080	3.5077	-1.7127	24.95	0.04	-0.750			
0.7524	48155.20	3.5050	3.5047	-1.6564	24.96	0.05	-0.750			
0.7573	48469.43	3.5020	3.5020	-1.6453	24.98	0.07	-0.750			
