Ah_balance (normalized)	Ah_balance (mAh)	Voltage - fit (V)	Voltage -  interpolate (V)	dQ/dV (1/V)	Temperature (°C)	Temperature - diff (°C)	Current (C)	R_DC 0ms (mOhm)	R_DC 50ms (mOhm)	R_DC 50 ms PEC (mOhm)
0.0004	23.50	4.1600	4.1597	-0.1164	24.96	0.00	-0.750			
0.0008	49.91	4.1570	4.1569	-0.1603	24.96	0.00	-0.750			
0.0013	85.23	4.1540	4.1541	-0.2044	24.96	0.00	-0.750			
0.0020	129.52	4.1510	4.1509	-0.2455	24.96	0.00	-0.750			
0.0028	180.60	4.1480	4.1480	-0.2860	24.96	0.00	-0.750			
0.0038	240.55	4.1450	4.1451	-0.3248	24.96	-0.00	-0.750			
0.0048	306.80	4.1420	4.1420	-0.3599	24.96	-0.00	-0.750			
0.0059	379.97	4.1390	4.1390	-0.3961	24.96	-0.00	-0.750			
0.0072	460.01	4.1360	4.1361	-0.4278	24.95	-0.01	-0.750			
0.0085	545.62	4.1330	4.1330	-0.4579	24.95	-0.01	-0.750			
0.0100	637.03	4.1300	4.1300	-0.4947	24.95	-0.01	-0.750			
0.0115	736.06	4.1270	4.1270	-0.5215	24.95	-0.01	-0.750			
0.0132	842.12	4.1240	4.1238	-0.5452	24.94	-0.02	-0.750			
0.0148	949.20	4.1210	4.1209	-0.5619	24.94	-0.02	-0.750			
0.0165	1059.11	4.1180	4.1179	-0.5831	24.94	-0.02	-0.750			
0.0183	1173.01	4.1150	4.1150	-0.5986	24.94	-0.02	-0.750			
0.0201	1287.84	4.1120	4.1118	-0.6109	24.93	-0.03	-0.750			
0.0219	1404.29	4.1090	4.1091	-0.6276	24.93	-0.03	-0.750			
0.0240	1533.63	4.1060	4.1059	-0.6448	24.93	-0.03	-0.750			
0.0259	1658.93	4.1030	4.1029	-0.6514	24.92	-0.04	-0.750			
0.0279	1785.98	4.1000	4.0999	-0.6596	24.92	-0.04	-0.750			
0.0299	1911.07	4.0970	4.0970	-0.6605	24.92	-0.04	-0.750			
0.0319	2038.57	4.0940	4.0939	-0.6702	24.91	-0.05	-0.750			
0.0338	2165.42	4.0910	4.0910	-0.6812	24.91	-0.05	-0.750			
0.0359	2298.89	4.0880	4.0879	-0.6957	24.91	-0.05	-0.750			
0.0381	2435.93	4.0850	4.0849	-0.6977	24.90	-0.06	-0.750			
0.0402	2571.52	4.0820	4.0820	-0.7003	24.90	-0.06	-0.750			
0.0423	2705.60	4.0790	4.0790	-0.7032	24.90	-0.06	-0.750			
0.0444	2840.23	4.0760	4.0759	-0.7035	24.90	-0.06	-0.750			
0.0465	2974.09	4.0730	4.0729	-0.7194	24.90	-0.06	-0.750			
0.0487	3113.61	4.0700	4.0700	-0.7173	24.90	-0.06	-0.750			
0.0509	3256.97	4.0670	4.0668	-0.7280	24.90	-0.06	-0.750			
0.0531	3398.09	4.0640	4.0647	-0.7266	24.90	-0.06	-0.750			
0.0553	3538.18	4.0610	4.0609	-0.7210	24.90	-0.06	-0.750			
0.0574	3670.74	4.0580	4.0580	-0.7356	24.90	-0.06	-0.750			
0.0596	3813.38	4.0550	4.0549	-0.7233	24.90	-0.06	-0.750			
0.0618	3955.26	4.0520	4.0518	-0.7350	24.90	-0.06	-0.750			
0.0640	4095.49	4.0490	4.0489	-0.7365	24.90	-0.06	-0.750			
0.0662	4238.52	4.0460	4.0463	-0.7367	24.90	-0.06	-0.750			
0.0684	4379.01	4.0430	4.0427	-0.7395	24.90	-0.06	-0.750			
0.0706	4518.11	4.0400	4.0400	-0.7424	24.90	-0.06	-0.750			
0.0728	4657.90	4.0370	4.0372	-0.7382	24.91	-0.05	-0.750			
0.0751	4808.24	4.0340	4.0339	-0.7569	24.91	-0.05	-0.750			
0.0774	4953.71	4.0310	4.0310	-0.7541	24.91	-0.05	-0.750			
0.0797	5098.33	4.0280	4.0280	-0.7569	24.91	-0.05	-0.750			
0.0819	5242.07	4.0250	4.0249	-0.7647	24.91	-0.05	-0.750			
0.0842	5389.03	4.0220	4.0220	-0.7616	24.91	-0.05	-0.750			
0.0865	5533.52	4.0190	4.0190	-0.7639	24.92	-0.04	-0.750			
0.0888	5685.51	4.0160	4.0159	-0.7704	24.92	-0.04	-0.750			
0.0912	5833.81	4.0130	4.0133	-0.7628	24.92	-0.04	-0.750			
0.0935	5981.28	4.0100	4.0100	-0.7549	24.92	-0.04	-0.750			
0.0957	6123.44	4.0070	4.0071	-0.7692	24.92	-0.04	-0.750			
0.0980	6271.38	4.0040	4.0039	-0.7648	24.92	-0.04	-0.750			
0.1003	6421.81	4.0010	4.0006	-0.7700	24.92	-0.04	-0.750			
0.1026	6568.50	3.9980	3.9979	-0.7719	24.92	-0.04	-0.750			
0.1050	6719.27	3.9950	3.9949	-0.7715	24.92	-0.04	-0.750			
0.1073	6865.86	3.9920	3.9919	-0.7736	24.93	-0.03	-0.750			
0.1095	7010.99	3.9890	3.9890	-0.7697	24.93	-0.03	-0.750			
0.1119	7160.25	3.9860	3.9860	-0.7784	24.93	-0.03	-0.750			
0.1142	7309.38	3.9830	3.9829	-0.7772	24.94	-0.02	-0.750			
0.1165	7458.99	3.9800	3.9801	-0.7803	24.94	-0.02	-0.750			
0.1189	7607.82	3.9770	3.9771	-0.7786	24.94	-0.02	-0.750			
0.1212	7758.85	3.9740	3.9739	-0.7911	24.94	-0.02	-0.750			
0.1236	7910.11	3.9710	3.9710	-0.7866	24.95	-0.01	-0.750			
0.1260	8063.75	3.9680	3.9679	-0.7895	24.95	-0.01	-0.750			
0.1284	8214.86	3.9650	3.9658	-0.7947	24.95	-0.01	-0.750			
0.1307	8366.86	3.9620	3.9620	-0.7947	24.95	-0.01	-0.750			
0.1331	8518.66	3.9590	3.9589	-0.8061	24.95	-0.01	-0.750			
0.1355	8675.05	3.9560	3.9558	-0.8030	24.96	-0.00	-0.750			
0.1380	8831.66	3.9530	3.9530	-0.8056	24.96	-0.00	-0.750			
0.1404	8988.14	3.9500	3.9499	-0.7988	24.96	-0.00	-0.750			
0.1428	9141.55	3.9470	3.9469	-0.7997	24.96	0.00	-0.750			
0.1452	9291.51	3.9440	3.9439	-0.7992	24.96	0.00	-0.750			
0.1475	9440.32	3.9410	3.9410	-0.7969	24.96	0.00	-0.750			
0.1499	9594.27	3.9380	3.9378	-0.8077	24.96	0.00	-0.750			
0.1524	9751.17	3.9350	3.9351	-0.8152	24.96	0.00	-0.750			
0.1549	9910.80	3.9320	3.9320	-0.8178	24.96	0.00	-0.750			
0.1573	10068.30	3.9290	3.9290	-0.8309	24.96	0.00	-0.750			
0.1598	10230.12	3.9260	3.9260	-0.8234	24.97	0.01	-0.750			
0.1623	10389.44	3.9230	3.9228	-0.8226	24.97	0.01	-0.750			
0.1648	10547.77	3.9200	3.9197	-0.8164	24.97	0.01	-0.750			
0.1673	10704.49	3.9170	3.9168	-0.8100	24.97	0.01	-0.750			
0.1696	10856.45	3.9140	3.9141	-0.8139	24.97	0.01	-0.750			
0.1720	11010.35	3.9110	3.9110	-0.8132	24.97	0.01	-0.750			
0.1745	11169.66	3.9080	3.9078	-0.8189	24.98	0.02	-0.750			
0.1770	11326.38	3.9050	3.9048	-0.8194	24.98	0.02	-0.750			
0.1794	11482.18	3.9020	3.9021	-0.8173	24.98	0.02	-0.750			
0.1819	11640.06	3.8990	3.8989	-0.8238	24.98	0.02	-0.750			
0.1844	11798.75	3.8960	3.8958	-0.8233	24.98	0.02	-0.750			
0.1868	11952.47	3.8930	3.8931	-0.8196	24.98	0.02	-0.750			
0.1893	12115.11	3.8900	3.8900	-0.8308	24.98	0.02	-0.750			
0.1918	12276.03	3.8870	3.8871	-0.8296	24.98	0.02	-0.750			
0.1942	12431.74	3.8840	3.8839	-0.8332	24.99	0.03	-0.750			
0.1968	12595.58	3.8810	3.8810	-0.8241	24.99	0.03	-0.750			
0.1993	12753.48	3.8780	3.8779	-0.8152	24.99	0.03	-0.750			
0.2017	12909.61	3.8750	3.8749	-0.8117	25.00	0.04	-0.750			
0.2041	13064.18	3.8720	3.8719	-0.8057	25.00	0.04	-0.750			
0.2065	13215.36	3.8690	3.8689	-0.8131	25.00	0.04	-0.750			
0.2090	13372.82	3.8660	3.8659	-0.8049	25.00	0.04	-0.750			
0.2113	13526.03	3.8630	3.8630	-0.8010	25.00	0.04	-0.750			
0.2139	13686.62	3.8600	3.8598	-0.8060	25.00	0.04	-0.750			
0.2162	13839.91	3.8570	3.8573	-0.8003	25.00	0.04	-0.750			
0.2186	13990.98	3.8540	3.8539	-0.7971	25.00	0.04	-0.750			
0.2210	14142.67	3.8510	3.8510	-0.7867	25.01	0.05	-0.750			
0.2233	14290.81	3.8480	3.8479	-0.7762	25.01	0.05	-0.750			
0.2257	14445.49	3.8450	3.8451	-0.7868	25.02	0.06	-0.750			
0.2280	14595.04	3.8420	3.8419	-0.7860	25.02	0.06	-0.750			
0.2304	14746.16	3.8390	3.8390	-0.7851	25.02	0.06	-0.750			
0.2327	14894.99	3.8360	3.8359	-0.7846	25.03	0.07	-0.750			
0.2351	15047.51	3.8330	3.8330	-0.7850	25.03	0.07	-0.750			
0.2375	15201.23	3.8300	3.8299	-0.7834	25.03	0.07	-0.750			
0.2398	15349.80	3.8270	3.8269	-0.7735	25.04	0.08	-0.750			
0.2422	15499.11	3.8240	3.8239	-0.7680	25.04	0.08	-0.750			
0.2444	15643.75	3.8210	3.8209	-0.7581	25.04	0.08	-0.750			
0.2467	15790.47	3.8180	3.8180	-0.7635	25.04	0.08	-0.750			
0.2490	15936.18	3.8150	3.8149	-0.7632	25.04	0.08	-0.750			
0.2514	16086.71	3.8120	3.8118	-0.7637	25.04	0.08	-0.750			
0.2536	16232.84	3.8090	3.8094	-0.7591	25.04	0.08	-0.750			
0.2559	16377.18	3.8060	3.8059	-0.7549	25.04	0.08	-0.750			
0.2581	16521.17	3.8030	3.8028	-0.7497	25.05	0.09	-0.750			
0.2603	16659.16	3.8000	3.8001	-0.7356	25.05	0.09	-0.750			
0.2626	16806.61	3.7970	3.7970	-0.7567	25.05	0.09	-0.750			
0.2648	16949.48	3.7940	3.7941	-0.7624	25.06	0.10	-0.750			
0.2672	17099.72	3.7910	3.7909	-0.7629	25.06	0.10	-0.750			
0.2694	17243.88	3.7880	3.7880	-0.7679	25.06	0.10	-0.750			
0.2718	17393.26	3.7850	3.7851	-0.7684	25.06	0.10	-0.750			
0.2741	17541.89	3.7820	3.7821	-0.7707	25.06	0.10	-0.750			
0.2764	17688.17	3.7790	3.7789	-0.7749	25.06	0.10	-0.750			
0.2787	17834.47	3.7760	3.7762	-0.7768	25.06	0.10	-0.750			
0.2810	17982.47	3.7730	3.7731	-0.7916	25.06	0.10	-0.750			
0.2834	18140.26	3.7700	3.7699	-0.8043	25.06	0.10	-0.750			
0.2859	18294.54	3.7670	3.7670	-0.8034	25.06	0.10	-0.750			
0.2883	18452.85	3.7640	3.7638	-0.8087	25.06	0.10	-0.750			
0.2908	18608.77	3.7610	3.7620	-0.8074	25.06	0.10	-0.750			
0.2932	18762.99	3.7580	3.7579	-0.8023	25.06	0.10	-0.750			
0.2955	18914.03	3.7550	3.7549	-0.8064	25.06	0.10	-0.750			
0.2979	19067.31	3.7520	3.7521	-0.8143	25.06	0.10	-0.750			
0.3004	19223.90	3.7490	3.7489	-0.8246	25.06	0.10	-0.750			
0.3029	19383.68	3.7460	3.7459	-0.8358	25.06	0.10	-0.750			
0.3053	19537.28	3.7430	3.7431	-0.8974	25.06	0.10	-0.750			
0.3081	19717.56	3.7400	3.7397	-0.9230	25.06	0.10	-0.750			
0.3110	19902.76	3.7370	3.7365	-0.9410	25.05	0.09	-0.750			
0.3139	20088.74	3.7340	3.7341	-0.9383	25.05	0.09	-0.750			
0.3168	20277.46	3.7310	3.7313	-0.9431	25.05	0.09	-0.750			
0.3197	20458.55	3.7280	3.7278	-0.9457	25.05	0.09	-0.750			
0.3224	20632.70	3.7250	3.7247	-0.9307	25.04	0.08	-0.750			
0.3250	20802.57	3.7220	3.7220	-0.9120	25.04	0.08	-0.750			
0.3279	20983.60	3.7190	3.7189	-0.9360	25.04	0.08	-0.750			
0.3307	21165.88	3.7160	3.7161	-0.9517	25.04	0.08	-0.750			
0.3336	21348.81	3.7130	3.7130	-0.9579	25.03	0.07	-0.750			
0.3364	21531.15	3.7100	3.7098	-0.9633	25.03	0.07	-0.750			
0.3393	21716.52	3.7070	3.7071	-0.9795	25.02	0.06	-0.750			
0.3423	21904.18	3.7040	3.7041	-1.0103	25.02	0.06	-0.750			
0.3454	22106.04	3.7010	3.7008	-1.0208	25.02	0.06	-0.750			
0.3485	22301.07	3.6980	3.6982	-1.0264	25.02	0.06	-0.750	0.363	0.527	
0.3515	22497.94	3.6950	3.6949	-1.0409	25.02	0.06	-0.750			
0.3547	22700.73	3.6920	3.6920	-1.0605	25.02	0.06	-0.750			
0.3579	22905.39	3.6890	3.6888	-1.0714	25.01	0.05	-0.750			
0.3611	23110.88	3.6860	3.6859	-1.0822	25.00	0.04	-0.750			
0.3643	23317.76	3.6830	3.6830	-1.0908	24.99	0.03	-0.750			
0.3677	23534.33	3.6800	3.6799	-1.1305	24.99	0.03	-0.750			
0.3711	23753.31	3.6770	3.6770	-1.1394	24.99	0.03	-0.750			
0.3746	23973.61	3.6740	3.6739	-1.1531	24.98	0.02	-0.750			
0.3780	24194.97	3.6710	3.6714	-1.1787	24.98	0.02	-0.750			
0.3817	24426.69	3.6680	3.6679	-1.1995	24.97	0.01	-0.750			
0.3853	24659.24	3.6650	3.6649	-1.2118	24.97	0.01	-0.750			
0.3889	24889.46	3.6620	3.6619	-1.2363	24.96	0.00	-0.750			
0.3927	25133.03	3.6590	3.6589	-1.2529	24.96	-0.00	-0.750			
0.3965	25376.71	3.6560	3.6559	-1.2581	24.95	-0.01	-0.750			
0.4002	25612.69	3.6530	3.6529	-1.2808	24.94	-0.02	-0.750			
0.4040	25857.37	3.6500	3.6504	-1.2901	24.94	-0.02	-0.750			
0.4080	26112.66	3.6470	3.6468	-1.3477	24.93	-0.03	-0.750			
0.4120	26371.16	3.6440	3.6439	-1.3872	24.92	-0.04	-0.750			
0.4163	26645.70	3.6410	3.6411	-1.4019	24.91	-0.05	-0.750			
0.4207	26925.35	3.6380	3.6386	-1.4329	24.90	-0.06	-0.750			
0.4250	27201.41	3.6350	3.6347	-1.4822	24.90	-0.06	-0.750			
0.4295	27490.22	3.6320	3.6321	-1.4723	24.89	-0.07	-0.750			
0.4340	27775.68	3.6290	3.6287	-1.4884	24.88	-0.08	-0.750			
0.4385	28063.63	3.6260	3.6262	-1.5194	24.87	-0.09	-0.750			
0.4430	28350.10	3.6230	3.6227	-1.5188	24.86	-0.10	-0.750			
0.4477	28651.02	3.6200	3.6201	-1.5818	24.85	-0.11	-0.750			
0.4524	28950.85	3.6170	3.6171	-1.6226	24.84	-0.12	-0.750			
0.4573	29268.64	3.6140	3.6138	-1.6544	24.84	-0.12	-0.750			
0.4626	29603.31	3.6110	3.6112	-1.6926	24.83	-0.13	-0.750			
0.4677	29930.51	3.6080	3.6077	-1.7062	24.83	-0.13	-0.750			
0.4729	30266.81	3.6050	3.6047	-1.7441	24.82	-0.14	-0.750			
0.4781	30598.60	3.6020	3.6025	-1.7653	24.82	-0.14	-0.750			
0.4833	30930.10	3.5990	3.5993	-1.8403	24.81	-0.15	-0.750			
0.4890	31295.96	3.5960	3.5960	-1.8880	24.80	-0.16	-0.750			
0.4948	31667.70	3.5930	3.5930	-1.9440	24.80	-0.16	-0.750			
0.5009	32057.19	3.5900	3.5903	-1.9777	24.80	-0.16	-0.750			
0.5070	32448.16	3.5870	3.5871	-1.9720	24.79	-0.17	-0.750			
0.5129	32826.11	3.5840	3.5840	-1.9583	24.78	-0.18	-0.750			
0.5187	33195.30	3.5810	3.5809	-1.9673	24.78	-0.18	-0.750			
0.5247	33582.26	3.5780	3.5777	-1.9904	24.78	-0.18	-0.750			
0.5306	33960.63	3.5750	3.5748	-2.0339	24.78	-0.18	-0.750			
0.5370	34365.47	3.5720	3.5719	-2.0520	24.77	-0.19	-0.750			
0.5431	34760.56	3.5690	3.5687	-2.0865	24.76	-0.20	-0.750			
0.5494	35160.96	3.5660	3.5663	-2.0811	24.76	-0.20	-0.750			
0.5557	35563.92	3.5630	3.5627	-2.0719	24.76	-0.20	-0.750			
0.5619	35964.53	3.5600	3.5601	-2.0609	24.76	-0.20	-0.750			
0.5679	36343.10	3.5570	3.5571	-2.0569	24.76	-0.20	-0.750			
0.5743	36753.73	3.5540	3.5538	-2.0535	24.76	-0.20	-0.750			
0.5804	37144.89	3.5510	3.5507	-2.0195	24.76	-0.20	-0.750			
0.5864	37529.86	3.5480	3.5484	-2.0120	24.77	-0.19	-0.750			
0.5925	37916.92	3.5450	3.5449	-1.9945	24.78	-0.18	-0.750			
0.5984	38298.86	3.5420	3.5418	-1.9599	24.78	-0.18	-0.750			
0.6041	38662.03	3.5390	3.5391	-1.9207	24.78	-0.18	-0.750			
0.6099	39036.25	3.5360	3.5358	-1.9273	24.79	-0.17	-0.750			
0.6155	39394.53	3.5330	3.5331	-1.8838	24.80	-0.16	-0.750			
0.6212	39755.81	3.5300	3.5301	-1.8568	24.81	-0.15	-0.750			
0.6269	40120.22	3.5270	3.5271	-1.8309	24.82	-0.14	-0.750			
0.6323	40464.55	3.5240	3.5240	-1.7672	24.83	-0.13	-0.750			
0.6375	40802.27	3.5210	3.5208	-1.7431	24.85	-0.11	-0.750			
0.6427	41131.32	3.5180	3.5179	-1.6825	24.86	-0.10	-0.750			
0.6476	41448.75	3.5150	3.5149	-1.6556	24.87	-0.09	-0.750			
0.6526	41764.26	3.5120	3.5123	-1.6261	24.88	-0.08	-0.750			
0.6575	42078.74	3.5090	3.5087	-1.5926	24.90	-0.06	-0.750			
0.6623	42385.69	3.5060	3.5062	-1.5578	24.92	-0.04	-0.750			
0.6668	42677.58	3.5030	3.5030	-1.5053	24.93	-0.03	-0.750			
0.6712	42957.98	3.5000	3.5002	-1.4506	24.94	-0.02	-0.750			
0.6755	43233.54	3.4970	3.4968	-1.4218	24.95	-0.01	-0.750			
0.6796	43496.77	3.4940	3.4941	-1.3730	24.97	0.01	-0.750			
0.6838	43765.91	3.4910	3.4910	-1.3374	24.99	0.03	-0.750			
0.6878	44020.09	3.4880	3.4879	-1.2862	25.01	0.05	-0.750			
0.6916	44260.22	3.4850	3.4852	-1.2303	25.02	0.06	-0.750			
0.6951	44486.98	3.4820	3.4819	-1.1159	25.04	0.08	-0.750			
