Relative time (s)	Voltage (V)	Temperature (°C)	
2.647	3.1303	26.25	
20.647	3.1855	26.27	
80.647	3.2188	26.29	
140.647	3.2279	26.27	
200.647	3.2327	26.25	
260.647	3.2357	26.21	
320.647	3.2383	26.16	
380.647	3.2402	26.12	
440.647	3.2419	26.07	
500.647	3.2435	26.03	
560.647	3.2448	25.99	
620.647	3.2461	25.95	
680.647	3.2474	25.90	
740.647	3.2484	25.86	
800.647	3.2495	25.82	
860.647	3.2504	25.78	
903.306	3.2507	25.77	
