Relative time (s)	Voltage (V)	Temperature (°C)	
2.499	3.0941	25.75	
16.499	3.1280	25.77	
76.499	3.1674	25.79	
136.499	3.1812	25.77	
196.499	3.1890	25.73	
256.499	3.1945	25.69	
316.499	3.1984	25.65	
376.499	3.2015	25.59	
436.499	3.2042	25.55	
496.499	3.2064	25.49	
556.499	3.2084	25.45	
616.499	3.2100	25.39	
676.499	3.2117	25.34	
736.499	3.2133	25.29	
796.499	3.2146	25.25	
856.499	3.2158	25.20	
903.306	3.2169	25.17	
