Ah_balance (normalized)	Ah_balance (mAh)	Voltage - fit (V)	Voltage -  interpolate (V)	dQ/dV (1/V)	Temperature (°C)	Temperature - diff (°C)	Current (C)	R_DC 0ms (mOhm)	R_DC 50ms (mOhm)	R_DC 50 ms PEC (mOhm)
0.0001	9.19	4.1660	4.1655	-0.0860	24.75	0.01	-0.750			
0.0005	32.10	4.1630	4.1626	-0.1435	24.75	0.01	-0.750			
0.0010	63.82	4.1600	4.1598	-0.1877	24.75	0.01	-0.750			
0.0016	103.52	4.1570	4.1570	-0.2350	24.74	0.00	-0.750			
0.0024	153.96	4.1540	4.1541	-0.2792	24.74	0.00	-0.750			
0.0033	212.28	4.1510	4.1508	-0.3206	24.74	0.00	-0.750			
0.0044	278.95	4.1480	4.1480	-0.3629	24.74	0.00	-0.750			
0.0055	353.39	4.1450	4.1450	-0.3994	24.74	-0.00	-0.750			
0.0068	434.37	4.1420	4.1420	-0.4343	24.74	-0.00	-0.750			
0.0081	520.77	4.1390	4.1390	-0.4676	24.73	-0.01	-0.750			
0.0096	612.70	4.1360	4.1361	-0.5021	24.73	-0.01	-0.750			
0.0112	714.10	4.1330	4.1330	-0.5345	24.73	-0.01	-0.750			
0.0128	820.38	4.1300	4.1298	-0.5616	24.73	-0.01	-0.750			
0.0146	932.18	4.1270	4.1271	-0.5878	24.72	-0.02	-0.750			
0.0164	1049.04	4.1240	4.1241	-0.6089	24.72	-0.02	-0.750			
0.0183	1169.49	4.1210	4.1210	-0.6282	24.72	-0.02	-0.750			
0.0202	1292.08	4.1180	4.1179	-0.6370	24.72	-0.02	-0.750			
0.0221	1411.79	4.1150	4.1151	-0.6572	24.71	-0.03	-0.750			
0.0241	1542.02	4.1120	4.1120	-0.6593	24.71	-0.03	-0.750			
0.0261	1669.20	4.1090	4.1088	-0.6686	24.71	-0.03	-0.750			
0.0281	1797.38	4.1060	4.1060	-0.6827	24.70	-0.04	-0.750			
0.0302	1929.97	4.1030	4.1029	-0.6919	24.70	-0.04	-0.750			
0.0323	2067.51	4.1000	4.0999	-0.6854	24.70	-0.04	-0.750			
0.0344	2200.77	4.0970	4.0970	-0.6799	24.70	-0.04	-0.750			
0.0364	2330.20	4.0940	4.0943	-0.6936	24.69	-0.05	-0.750			
0.0384	2460.60	4.0910	4.0908	-0.6915	24.69	-0.05	-0.750			
0.0404	2588.30	4.0880	4.0877	-0.6880	24.69	-0.05	-0.750			
0.0425	2719.64	4.0850	4.0853	-0.7023	24.69	-0.05	-0.750			
0.0446	2857.50	4.0820	4.0820	-0.7229	24.69	-0.05	-0.750			
0.0469	3000.64	4.0790	4.0790	-0.7417	24.69	-0.05	-0.750			
0.0491	3143.16	4.0760	4.0761	-0.7330	24.68	-0.06	-0.750			
0.0514	3288.64	4.0730	4.0730	-0.7438	24.68	-0.06	-0.750			
0.0536	3430.29	4.0700	4.0700	-0.7459	24.68	-0.06	-0.750			
0.0558	3572.91	4.0670	4.0667	-0.7509	24.68	-0.06	-0.750			
0.0580	3713.71	4.0640	4.0640	-0.7665	24.68	-0.06	-0.750			
0.0603	3862.19	4.0610	4.0610	-0.7660	24.68	-0.06	-0.750			
0.0627	4012.64	4.0580	4.0579	-0.7651	24.68	-0.06	-0.750			
0.0650	4163.05	4.0550	4.0550	-0.7666	24.68	-0.06	-0.750			
0.0673	4309.00	4.0520	4.0526	-0.7665	24.68	-0.06	-0.750			
0.0696	4454.78	4.0490	4.0489	-0.7649	24.68	-0.06	-0.750			
0.0719	4599.53	4.0460	4.0459	-0.7692	24.68	-0.06	-0.750			
0.0742	4748.09	4.0430	4.0430	-0.7729	24.68	-0.06	-0.750			
0.0766	4900.09	4.0400	4.0399	-0.7790	24.68	-0.06	-0.750			
0.0789	5050.15	4.0370	4.0370	-0.7768	24.68	-0.06	-0.750			
0.0812	5199.49	4.0340	4.0338	-0.7722	24.68	-0.06	-0.750			
0.0835	5346.10	4.0310	4.0309	-0.7656	24.68	-0.06	-0.750			
0.0858	5490.42	4.0280	4.0280	-0.7679	24.68	-0.06	-0.750			
0.0881	5636.88	4.0250	4.0249	-0.7684	24.69	-0.05	-0.750			
0.0904	5787.86	4.0220	4.0219	-0.7790	24.69	-0.05	-0.750			
0.0928	5937.47	4.0190	4.0192	-0.7832	24.69	-0.05	-0.750			
0.0951	6088.82	4.0160	4.0160	-0.7883	24.69	-0.05	-0.750			
0.0975	6242.04	4.0130	4.0129	-0.8006	24.69	-0.05	-0.750			
0.1000	6397.17	4.0100	4.0099	-0.7939	24.70	-0.04	-0.750			
0.1024	6551.23	4.0070	4.0069	-0.7997	24.70	-0.04	-0.750			
0.1048	6705.56	4.0040	4.0045	-0.7975	24.70	-0.04	-0.750			
0.1071	6857.50	4.0010	4.0010	-0.7976	24.70	-0.04	-0.750			
0.1095	7010.10	3.9980	3.9979	-0.8099	24.70	-0.04	-0.750			
0.1120	7165.64	3.9950	3.9950	-0.8025	24.69	-0.05	-0.750			
0.1144	7322.70	3.9920	3.9918	-0.8122	24.69	-0.05	-0.750			
0.1169	7479.98	3.9890	3.9895	-0.8030	24.69	-0.05	-0.750			
0.1193	7633.00	3.9860	3.9858	-0.7981	24.69	-0.05	-0.750			
0.1216	7785.29	3.9830	3.9830	-0.7948	24.69	-0.05	-0.750			
0.1240	7933.24	3.9800	3.9801	-0.7873	24.70	-0.04	-0.750			
0.1263	8085.99	3.9770	3.9768	-0.8028	24.70	-0.04	-0.750			
0.1288	8240.36	3.9740	3.9741	-0.8124	24.70	-0.04	-0.750			
0.1312	8395.34	3.9710	3.9711	-0.8173	24.70	-0.04	-0.750			
0.1337	8555.53	3.9680	3.9679	-0.8336	24.70	-0.04	-0.750			
0.1362	8718.27	3.9650	3.9650	-0.8370	24.70	-0.04	-0.750			
0.1388	8881.04	3.9620	3.9619	-0.8346	24.70	-0.04	-0.750			
0.1413	9041.84	3.9590	3.9589	-0.8306	24.70	-0.04	-0.750			
0.1438	9200.40	3.9560	3.9559	-0.8253	24.70	-0.04	-0.750			
0.1462	9358.70	3.9530	3.9529	-0.8303	24.71	-0.03	-0.750			
0.1487	9516.96	3.9500	3.9499	-0.8251	24.71	-0.03	-0.750			
0.1511	9673.10	3.9470	3.9469	-0.8201	24.71	-0.03	-0.750			
0.1537	9834.33	3.9440	3.9442	-0.8347	24.72	-0.02	-0.750			
0.1562	9994.87	3.9410	3.9408	-0.8339	24.72	-0.02	-0.750			
0.1587	10153.87	3.9380	3.9378	-0.8352	24.72	-0.02	-0.750			
0.1612	10313.87	3.9350	3.9351	-0.8357	24.72	-0.02	-0.750			
0.1636	10471.25	3.9320	3.9321	-0.8349	24.72	-0.02	-0.750			
0.1662	10638.81	3.9290	3.9290	-0.8445	24.72	-0.02	-0.750			
0.1688	10800.01	3.9260	3.9260	-0.8434	24.72	-0.02	-0.750			
0.1712	10959.63	3.9230	3.9230	-0.8507	24.72	-0.02	-0.750			
0.1739	11127.72	3.9200	3.9199	-0.8520	24.73	-0.01	-0.750			
0.1764	11290.53	3.9170	3.9169	-0.8516	24.73	-0.01	-0.750			
0.1790	11454.86	3.9140	3.9139	-0.8528	24.73	-0.01	-0.750			
0.1815	11619.13	3.9110	3.9108	-0.8489	24.73	-0.01	-0.750			
0.1841	11781.31	3.9080	3.9079	-0.8595	24.73	-0.01	-0.750			
0.1866	11945.19	3.9050	3.9050	-0.8542	24.74	-0.00	-0.750			
0.1892	12108.44	3.9020	3.9018	-0.8514	24.74	-0.00	-0.750			
0.1919	12279.11	3.8990	3.8994	-0.8603	24.74	-0.00	-0.750			
0.1944	12441.95	3.8960	3.8959	-0.8531	24.74	0.00	-0.750			
0.1969	12604.49	3.8930	3.8930	-0.8560	24.74	0.00	-0.750			
0.1995	12768.84	3.8900	3.8900	-0.8523	24.74	0.00	-0.750			
0.2021	12931.70	3.8870	3.8869	-0.8548	24.74	0.00	-0.750			
0.2046	13094.94	3.8840	3.8843	-0.8588	24.74	0.00	-0.750			
0.2071	13255.31	3.8810	3.8810	-0.8764	24.74	0.00	-0.750			
0.2098	13428.21	3.8780	3.8779	-0.8703	24.75	0.01	-0.750			
0.2124	13596.47	3.8750	3.8748	-0.8677	24.75	0.01	-0.750			
0.2150	13763.06	3.8720	3.8720	-0.8779	24.76	0.02	-0.750			
0.2177	13931.03	3.8690	3.8693	-0.8886	24.76	0.02	-0.750			
0.2203	14101.85	3.8660	3.8658	-0.8949	24.76	0.02	-0.750			
0.2231	14276.24	3.8630	3.8626	-0.8913	24.76	0.02	-0.750			
0.2258	14448.70	3.8600	3.8601	-0.9060	24.76	0.02	-0.750			
0.2285	14623.64	3.8570	3.8570	-0.8960	24.76	0.02	-0.750			
0.2312	14796.16	3.8540	3.8537	-0.8933	24.76	0.02	-0.750			
0.2338	14964.32	3.8510	3.8509	-0.8863	24.76	0.02	-0.750			
0.2364	15126.88	3.8480	3.8481	-0.8765	24.76	0.02	-0.750			
0.2391	15300.76	3.8450	3.8450	-0.8873	24.76	0.02	-0.750			
0.2418	15472.38	3.8420	3.8421	-0.8825	24.76	0.02	-0.750			
0.2443	15636.47	3.8390	3.8390	-0.8808	24.76	0.02	-0.750			
0.2470	15807.34	3.8360	3.8360	-0.8794	24.77	0.03	-0.750			
0.2496	15974.02	3.8330	3.8329	-0.8746	24.77	0.03	-0.750			
0.2522	16141.62	3.8300	3.8299	-0.8699	24.78	0.04	-0.750			
0.2549	16310.83	3.8270	3.8277	-0.8765	24.78	0.04	-0.750			
0.2575	16479.81	3.8240	3.8239	-0.8725	24.78	0.04	-0.750			
0.2601	16649.13	3.8210	3.8209	-0.8783	24.78	0.04	-0.750			
0.2628	16818.16	3.8180	3.8179	-0.8698	24.78	0.04	-0.750			
0.2654	16986.44	3.8150	3.8149	-0.8677	24.78	0.04	-0.750			
0.2680	17152.64	3.8120	3.8121	-0.8621	24.78	0.04	-0.750			
0.2706	17316.10	3.8090	3.8090	-0.8602	24.79	0.05	-0.750			
0.2731	17478.65	3.8060	3.8059	-0.8524	24.79	0.05	-0.750			
0.2756	17639.39	3.8030	3.8030	-0.8409	24.79	0.05	-0.750			
0.2782	17806.20	3.8000	3.8001	-0.8452	24.80	0.06	-0.750			
0.2808	17968.51	3.7970	3.7969	-0.8456	24.80	0.06	-0.750			
0.2833	18129.08	3.7940	3.7941	-0.8459	24.80	0.06	-0.750			
0.2858	18290.53	3.7910	3.7909	-0.8387	24.80	0.06	-0.750			
0.2883	18452.49	3.7880	3.7878	-0.8374	24.80	0.06	-0.750			
0.2909	18615.21	3.7850	3.7849	-0.8303	24.80	0.06	-0.750			
0.2934	18774.82	3.7820	3.7819	-0.8268	24.80	0.06	-0.750			
0.2958	18930.03	3.7790	3.7790	-0.8293	24.81	0.07	-0.750			
0.2982	19086.16	3.7760	3.7760	-0.8177	24.81	0.07	-0.750			
0.3007	19242.19	3.7730	3.7729	-0.8143	24.81	0.07	-0.750			
0.3032	19404.67	3.7700	3.7699	-0.8171	24.82	0.08	-0.750			
0.3056	19560.04	3.7670	3.7671	-0.8122	24.82	0.08	-0.750			
0.3080	19714.66	3.7640	3.7640	-0.8152	24.82	0.08	-0.750			
0.3104	19868.47	3.7610	3.7608	-0.8120	24.82	0.08	-0.750			
0.3129	20022.79	3.7580	3.7580	-0.8056	24.82	0.08	-0.750			
0.3153	20180.85	3.7550	3.7551	-0.8183	24.82	0.08	-0.750			
0.3178	20339.44	3.7520	3.7521	-0.8211	24.82	0.08	-0.750			
0.3203	20497.49	3.7490	3.7489	-0.8262	24.83	0.09	-0.750			
0.3228	20656.02	3.7460	3.7460	-0.8317	24.83	0.09	-0.750			
0.3253	20816.67	3.7430	3.7428	-0.8367	24.83	0.09	-0.750			
0.3278	20978.73	3.7400	3.7399	-0.8448	24.84	0.10	-0.750			
0.3303	21142.10	3.7370	3.7371	-0.8506	24.84	0.10	-0.750			
0.3329	21303.07	3.7340	3.7339	-0.8653	24.84	0.10	-0.750			
0.3355	21471.48	3.7310	3.7309	-0.8733	24.84	0.10	-0.750			
0.3381	21635.73	3.7280	3.7280	-0.8785	24.84	0.10	-0.750			
0.3408	21811.14	3.7250	3.7249	-0.9004	24.84	0.10	-0.750			
0.3435	21984.51	3.7220	3.7219	-0.9125	24.84	0.10	-0.750			
0.3463	22161.23	3.7190	3.7189	-0.9265	24.84	0.10	-0.750			
0.3491	22339.83	3.7160	3.7159	-0.9351	24.84	0.10	-0.750			
0.3518	22517.89	3.7130	3.7130	-0.9453	24.84	0.10	-0.750			
0.3547	22701.26	3.7100	3.7103	-1.0003	24.84	0.10	-0.750			
0.3578	22898.08	3.7070	3.7069	-1.0056	24.83	0.09	-0.750			
0.3609	23095.07	3.7040	3.7037	-1.0142	24.83	0.09	-0.750			
0.3639	23290.90	3.7010	3.7016	-1.0274	24.83	0.09	-0.750	0.396	0.506	
0.3670	23489.70	3.6980	3.6985	-1.0545	24.82	0.08	-0.750			
0.3702	23691.66	3.6950	3.6948	-1.0664	24.82	0.08	-0.750			
0.3733	23894.31	3.6920	3.6919	-1.0686	24.82	0.08	-0.750			
0.3765	24097.69	3.6890	3.6890	-1.0896	24.82	0.08	-0.750			
0.3800	24317.22	3.6860	3.6866	-1.1310	24.82	0.08	-0.750			
0.3834	24535.05	3.6830	3.6829	-1.1494	24.81	0.07	-0.750			
0.3868	24754.73	3.6800	3.6799	-1.1675	24.81	0.07	-0.750			
0.3903	24979.31	3.6770	3.6770	-1.1976	24.80	0.06	-0.750			
0.3940	25213.49	3.6740	3.6740	-1.2239	24.80	0.06	-0.750			
0.3977	25452.93	3.6710	3.6710	-1.2499	24.79	0.05	-0.750			
0.4014	25691.13	3.6680	3.6679	-1.2786	24.79	0.05	-0.750			
0.4054	25943.03	3.6650	3.6653	-1.2802	24.78	0.04	-0.750			
0.4093	26192.52	3.6620	3.6619	-1.2890	24.77	0.03	-0.750			
0.4131	26439.33	3.6590	3.6589	-1.3017	24.77	0.03	-0.750			
0.4170	26686.95	3.6560	3.6566	-1.3340	24.76	0.02	-0.750			
0.4210	26942.77	3.6530	3.6529	-1.3648	24.75	0.01	-0.750			
0.4249	27196.26	3.6500	3.6500	-1.4255	24.75	0.01	-0.750			
0.4295	27485.53	3.6470	3.6471	-1.4484	24.74	0.00	-0.750			
0.4340	27777.92	3.6440	3.6439	-1.4860	24.73	-0.01	-0.750			
0.4385	28065.77	3.6410	3.6409	-1.5374	24.73	-0.01	-0.750			
0.4432	28367.03	3.6380	3.6380	-1.5587	24.72	-0.02	-0.750			
0.4479	28668.28	3.6350	3.6346	-1.5809	24.71	-0.03	-0.750			
0.4528	28978.93	3.6320	3.6327	-1.5887	24.70	-0.04	-0.750			
0.4575	29282.83	3.6290	3.6290	-1.6141	24.70	-0.04	-0.750			
0.4626	29604.23	3.6260	3.6258	-1.6709	24.70	-0.04	-0.750			
0.4676	29924.26	3.6230	3.6226	-1.6879	24.70	-0.04	-0.750			
0.4726	30245.05	3.6200	3.6205	-1.7550	24.69	-0.05	-0.750			
0.4779	30587.84	3.6170	3.6172	-1.7670	24.68	-0.06	-0.750			
0.4834	30936.31	3.6140	3.6141	-1.7837	24.67	-0.07	-0.750			
0.4888	31281.40	3.6110	3.6111	-1.8193	24.67	-0.07	-0.750			
0.4942	31629.43	3.6080	3.6077	-1.8596	24.66	-0.08	-0.750			
0.4997	31982.07	3.6050	3.6049	-1.8902	24.65	-0.09	-0.750			
0.5056	32361.00	3.6020	3.6019	-1.9125	24.65	-0.09	-0.750			
0.5115	32734.44	3.5990	3.5990	-1.9579	24.64	-0.10	-0.750			
0.5174	33115.60	3.5960	3.5963	-1.9915	24.64	-0.10	-0.750			
0.5233	33491.01	3.5930	3.5929	-2.0437	24.64	-0.10	-0.750			
0.5294	33879.61	3.5900	3.5899	-2.1384	24.64	-0.10	-0.750			
0.5359	34296.19	3.5870	3.5871	-2.1422	24.63	-0.11	-0.750			
0.5424	34713.76	3.5840	3.5838	-2.1152	24.63	-0.11	-0.750			
0.5488	35123.27	3.5810	3.5815	-2.1482	24.62	-0.12	-0.750			
0.5556	35557.25	3.5780	3.5780	-2.1829	24.62	-0.12	-0.750			
0.5619	35963.95	3.5750	3.5746	-2.2340	24.62	-0.12	-0.750			
0.5687	36398.64	3.5720	3.5720	-2.2893	24.62	-0.12	-0.750			
0.5759	36858.85	3.5690	3.5684	-2.2743	24.62	-0.12	-0.750			
0.5827	37289.73	3.5660	3.5667	-2.2812	24.62	-0.12	-0.750			
0.5896	37733.71	3.5630	3.5624	-2.2834	24.62	-0.12	-0.750			
0.5964	38168.51	3.5600	3.5600	-2.2486	24.62	-0.12	-0.750			
0.6033	38610.38	3.5570	3.5576	-2.2899	24.63	-0.11	-0.750			
0.6102	39051.05	3.5540	3.5542	-2.3409	24.63	-0.11	-0.750			
0.6169	39484.55	3.5510	3.5507	-2.2018	24.64	-0.10	-0.750			
0.6233	39894.07	3.5480	3.5479	-2.2147	24.64	-0.10	-0.750			
0.6302	40335.67	3.5450	3.5452	-2.2211	24.64	-0.10	-0.750			
0.6368	40756.55	3.5420	3.5415	-2.1822	24.65	-0.09	-0.750			
0.6434	41176.15	3.5390	3.5388	-2.1596	24.66	-0.08	-0.750			
0.6500	41598.62	3.5360	3.5355	-2.1078	24.67	-0.07	-0.750			
0.6561	41989.19	3.5330	3.5331	-2.0110	24.68	-0.06	-0.750			
0.6622	42379.53	3.5300	3.5303	-1.9903	24.69	-0.05	-0.750			
0.6679	42745.80	3.5270	3.5271	-1.9128	24.70	-0.04	-0.750			
0.6736	43111.60	3.5240	3.5236	-1.8690	24.72	-0.02	-0.750			
0.6792	43469.45	3.5210	3.5209	-1.8401	24.73	-0.01	-0.750			
0.6846	43811.71	3.5180	3.5187	-1.7738	24.74	0.00	-0.750			
0.6900	44158.91	3.5150	3.5154	-1.7083	24.75	0.01	-0.750			
0.6950	44480.17	3.5120	3.5116	-1.6633	24.77	0.03	-0.750			
0.7000	44800.73	3.5090	3.5087	-1.6229	24.79	0.05	-0.750			
0.7049	45111.10	3.5060	3.5064	-1.5780	24.80	0.06	-0.750			
0.7096	45412.84	3.5030	3.5034	-1.5152	24.82	0.08	-0.750			
0.7139	45692.75	3.5000	3.5003	-1.4425	24.84	0.10	-0.750			
0.7182	45967.82	3.4970	3.4971	-1.3786	24.87	0.13	-0.750			
0.7222	46221.09	3.4940	3.4941	-1.3246	24.88	0.14	-0.750			
0.7261	46469.31	3.4910	3.4910	-1.1774	24.90	0.16	-0.750			
