Ah_balance (normalized)	Ah_balance (mAh)	Voltage - fit (V)	Voltage -  interpolate (V)	dQ/dV (1/V)	Temperature (°C)	Temperature - diff (°C)	Current (C)	R_DC 0ms (mOhm)	R_DC 50ms (mOhm)	R_DC 50 ms PEC (mOhm)
0.0001	7.24	4.1660	4.1666	-0.1140	24.89	0.01	-0.750			
0.0005	33.56	4.1630	4.1630	-0.1593	24.89	0.01	-0.750			
0.0010	66.95	4.1600	4.1602	-0.2047	24.89	0.01	-0.750			
0.0018	112.26	4.1570	4.1569	-0.2526	24.89	0.01	-0.750			
0.0026	165.89	4.1540	4.1539	-0.2951	24.88	0.00	-0.750			
0.0035	226.61	4.1510	4.1510	-0.3391	24.88	0.00	-0.750			
0.0046	296.75	4.1480	4.1481	-0.3821	24.88	-0.00	-0.750			
0.0059	374.66	4.1450	4.1449	-0.4239	24.88	-0.00	-0.750			
0.0072	459.80	4.1420	4.1419	-0.4645	24.87	-0.01	-0.750			
0.0086	552.02	4.1390	4.1391	-0.5018	24.87	-0.01	-0.750			
0.0102	654.78	4.1360	4.1359	-0.5446	24.87	-0.01	-0.750			
0.0119	764.33	4.1330	4.1330	-0.5742	24.86	-0.02	-0.750			
0.0137	878.72	4.1300	4.1301	-0.6003	24.86	-0.02	-0.750			
0.0156	998.12	4.1270	4.1269	-0.6214	24.85	-0.03	-0.750			
0.0175	1120.19	4.1240	4.1240	-0.6405	24.85	-0.03	-0.750			
0.0195	1244.90	4.1210	4.1210	-0.6514	24.84	-0.04	-0.750			
0.0214	1369.03	4.1180	4.1182	-0.6750	24.84	-0.04	-0.750			
0.0234	1500.63	4.1150	4.1149	-0.6874	24.83	-0.05	-0.750			
0.0256	1635.68	4.1120	4.1117	-0.7001	24.83	-0.05	-0.750			
0.0277	1772.33	4.1090	4.1089	-0.7128	24.82	-0.06	-0.750			
0.0299	1911.30	4.1060	4.1060	-0.7181	24.82	-0.06	-0.750			
0.0321	2051.30	4.1030	4.1029	-0.7270	24.82	-0.06	-0.750			
0.0342	2191.24	4.1000	4.1000	-0.7395	24.82	-0.06	-0.750			
0.0364	2329.50	4.0970	4.0970	-0.7402	24.81	-0.07	-0.750			
0.0387	2476.17	4.0940	4.0938	-0.7537	24.81	-0.07	-0.750			
0.0410	2622.35	4.0910	4.0912	-0.7582	24.81	-0.07	-0.750			
0.0433	2769.89	4.0880	4.0879	-0.7610	24.81	-0.07	-0.750			
0.0456	2916.56	4.0850	4.0849	-0.7615	24.81	-0.07	-0.750			
0.0478	3062.17	4.0820	4.0820	-0.7609	24.80	-0.08	-0.750			
0.0501	3205.45	4.0790	4.0791	-0.7600	24.80	-0.08	-0.750			
0.0524	3352.92	4.0760	4.0759	-0.7685	24.80	-0.08	-0.750			
0.0547	3500.85	4.0730	4.0730	-0.7703	24.80	-0.08	-0.750			
0.0570	3648.83	4.0700	4.0701	-0.7774	24.80	-0.08	-0.750			
0.0594	3798.87	4.0670	4.0670	-0.7943	24.81	-0.07	-0.750			
0.0618	3956.12	4.0640	4.0638	-0.7907	24.81	-0.07	-0.750			
0.0642	4109.02	4.0610	4.0609	-0.7861	24.82	-0.06	-0.750			
0.0665	4258.93	4.0580	4.0586	-0.7853	24.82	-0.06	-0.750			
0.0689	4410.12	4.0550	4.0550	-0.7814	24.82	-0.06	-0.750			
0.0712	4558.60	4.0520	4.0518	-0.7873	24.82	-0.06	-0.750			
0.0735	4705.09	4.0490	4.0490	-0.7815	24.82	-0.06	-0.750			
0.0759	4857.55	4.0460	4.0460	-0.7974	24.82	-0.06	-0.750			
0.0783	5013.15	4.0430	4.0430	-0.8015	24.82	-0.06	-0.750			
0.0808	5168.32	4.0400	4.0399	-0.8035	24.82	-0.06	-0.750			
0.0832	5321.65	4.0370	4.0371	-0.8050	24.82	-0.06	-0.750			
0.0856	5476.38	4.0340	4.0340	-0.8046	24.82	-0.06	-0.750			
0.0880	5629.86	4.0310	4.0309	-0.8023	24.82	-0.06	-0.750			
0.0904	5786.99	4.0280	4.0280	-0.8007	24.82	-0.06	-0.750			
0.0928	5937.93	4.0250	4.0250	-0.7998	24.82	-0.06	-0.750			
0.0952	6091.96	4.0220	4.0220	-0.8158	24.82	-0.06	-0.750			
0.0977	6250.02	4.0190	4.0189	-0.8171	24.82	-0.06	-0.750			
0.1001	6408.31	4.0160	4.0158	-0.8118	24.82	-0.06	-0.750			
0.1026	6565.58	4.0130	4.0129	-0.8116	24.82	-0.06	-0.750			
0.1050	6721.18	4.0100	4.0099	-0.8164	24.82	-0.06	-0.750			
0.1074	6876.71	4.0070	4.0068	-0.8187	24.83	-0.05	-0.750			
0.1099	7030.41	4.0040	4.0040	-0.8097	24.83	-0.05	-0.750			
0.1122	7183.30	4.0010	4.0010	-0.8089	24.83	-0.05	-0.750			
0.1148	7347.16	3.9980	3.9981	-0.8251	24.84	-0.04	-0.750			
0.1173	7506.35	3.9950	3.9952	-0.8237	24.84	-0.04	-0.750			
0.1197	7662.14	3.9920	3.9919	-0.8211	24.84	-0.04	-0.750			
0.1221	7817.37	3.9890	3.9890	-0.8232	24.84	-0.04	-0.750			
0.1246	7974.55	3.9860	3.9860	-0.8238	24.84	-0.04	-0.750			
0.1271	8134.49	3.9830	3.9829	-0.8356	24.84	-0.04	-0.750			
0.1296	8296.22	3.9800	3.9801	-0.8378	24.84	-0.04	-0.750			
0.1321	8455.54	3.9770	3.9770	-0.8560	24.84	-0.04	-0.750			
0.1348	8624.13	3.9740	3.9740	-0.8506	24.84	-0.04	-0.750			
0.1373	8789.26	3.9710	3.9708	-0.8419	24.85	-0.03	-0.750			
0.1398	8949.57	3.9680	3.9679	-0.8400	24.85	-0.03	-0.750			
0.1424	9110.64	3.9650	3.9652	-0.8414	24.85	-0.03	-0.750			
0.1448	9268.40	3.9620	3.9618	-0.8449	24.85	-0.03	-0.750			
0.1474	9432.82	3.9590	3.9589	-0.8406	24.85	-0.03	-0.750			
0.1499	9592.60	3.9560	3.9560	-0.8486	24.86	-0.02	-0.750			
0.1524	9755.85	3.9530	3.9530	-0.8504	24.86	-0.02	-0.750			
0.1550	9921.15	3.9500	3.9499	-0.8527	24.86	-0.02	-0.750			
0.1575	10081.90	3.9470	3.9469	-0.8583	24.86	-0.02	-0.750			
0.1601	10245.90	3.9440	3.9439	-0.8588	24.86	-0.02	-0.750			
0.1627	10412.60	3.9410	3.9410	-0.8623	24.87	-0.01	-0.750			
0.1653	10582.14	3.9380	3.9380	-0.8738	24.87	-0.01	-0.750			
0.1680	10750.03	3.9350	3.9349	-0.8691	24.87	-0.01	-0.750			
0.1706	10917.24	3.9320	3.9319	-0.8810	24.87	-0.01	-0.750			
0.1732	11086.48	3.9290	3.9289	-0.8779	24.88	-0.00	-0.750			
0.1759	11254.43	3.9260	3.9259	-0.8737	24.88	-0.00	-0.750			
0.1785	11425.15	3.9230	3.9230	-0.8782	24.88	-0.00	-0.750			
0.1811	11592.06	3.9200	3.9199	-0.8748	24.88	0.00	-0.750			
0.1838	11760.34	3.9170	3.9170	-0.8769	24.89	0.01	-0.750			
0.1864	11926.47	3.9140	3.9138	-0.8723	24.89	0.01	-0.750			
0.1890	12095.01	3.9110	3.9111	-0.8764	24.90	0.02	-0.750			
0.1916	12262.79	3.9080	3.9083	-0.8813	24.90	0.02	-0.750			
0.1943	12432.63	3.9050	3.9048	-0.8836	24.90	0.02	-0.750			
0.1969	12601.64	3.9020	3.9020	-0.8863	24.91	0.03	-0.750			
0.1995	12768.52	3.8990	3.8990	-0.8844	24.91	0.03	-0.750			
0.2022	12942.17	3.8960	3.8960	-0.8984	24.92	0.04	-0.750			
0.2049	13115.43	3.8930	3.8930	-0.8978	24.92	0.04	-0.750			
0.2076	13287.00	3.8900	3.8900	-0.9085	24.92	0.04	-0.750			
0.2103	13462.13	3.8870	3.8870	-0.9082	24.93	0.05	-0.750			
0.2131	13640.18	3.8840	3.8839	-0.9060	24.93	0.05	-0.750			
0.2158	13814.24	3.8810	3.8812	-0.8963	24.93	0.05	-0.750			
0.2185	13983.14	3.8780	3.8780	-0.9029	24.93	0.05	-0.750			
0.2212	14155.60	3.8750	3.8750	-0.9000	24.93	0.05	-0.750			
0.2239	14328.14	3.8720	3.8718	-0.8989	24.94	0.06	-0.750			
0.2265	14497.13	3.8690	3.8691	-0.8941	24.94	0.06	-0.750			
0.2293	14674.19	3.8660	3.8665	-0.9042	24.94	0.06	-0.750			
0.2320	14847.91	3.8630	3.8629	-0.9075	24.94	0.06	-0.750			
0.2347	15023.22	3.8600	3.8599	-0.9038	24.94	0.06	-0.750			
0.2374	15194.24	3.8570	3.8570	-0.8991	24.94	0.06	-0.750			
0.2401	15368.69	3.8540	3.8540	-0.9035	24.94	0.06	-0.750			
0.2428	15541.73	3.8510	3.8511	-0.9037	24.94	0.06	-0.750			
0.2455	15714.83	3.8480	3.8479	-0.9092	24.95	0.07	-0.750			
0.2483	15889.46	3.8450	3.8449	-0.9046	24.95	0.07	-0.750			
0.2510	16063.07	3.8420	3.8420	-0.9047	24.96	0.08	-0.750			
0.2537	16237.90	3.8390	3.8390	-0.9075	24.96	0.08	-0.750			
0.2564	16411.57	3.8360	3.8359	-0.9115	24.96	0.08	-0.750			
0.2592	16586.62	3.8330	3.8330	-0.9133	24.96	0.08	-0.750			
0.2619	16760.50	3.8300	3.8300	-0.9122	24.97	0.09	-0.750			
0.2646	16937.36	3.8270	3.8270	-0.9260	24.97	0.09	-0.750			
0.2674	17115.55	3.8240	3.8241	-0.9308	24.97	0.09	-0.750			
0.2702	17294.77	3.8210	3.8209	-0.9312	24.97	0.09	-0.750			
0.2730	17474.21	3.8180	3.8179	-0.9317	24.98	0.10	-0.750			
0.2758	17652.66	3.8150	3.8151	-0.9294	24.98	0.10	-0.750			
0.2786	17833.37	3.8120	3.8120	-0.9272	24.98	0.10	-0.750			
0.2814	18009.37	3.8090	3.8090	-0.9334	24.98	0.10	-0.750			
0.2842	18190.06	3.8060	3.8060	-0.9220	24.99	0.11	-0.750			
0.2870	18366.66	3.8030	3.8029	-0.9179	24.99	0.11	-0.750			
0.2897	18542.23	3.8000	3.7998	-0.9154	25.00	0.12	-0.750			
0.2925	18717.50	3.7970	3.7971	-0.9111	25.00	0.12	-0.750			
0.2952	18890.80	3.7940	3.7939	-0.9135	25.00	0.12	-0.750			
0.2979	19064.88	3.7910	3.7909	-0.9161	25.01	0.13	-0.750			
0.3006	19238.52	3.7880	3.7881	-0.9079	25.01	0.13	-0.750			
0.3034	19418.77	3.7850	3.7848	-0.9233	25.01	0.13	-0.750			
0.3062	19595.59	3.7820	3.7820	-0.9248	25.01	0.13	-0.750			
0.3090	19774.50	3.7790	3.7789	-0.9223	25.01	0.13	-0.750			
0.3117	19951.04	3.7760	3.7760	-0.9166	25.02	0.14	-0.750			
0.3145	20125.35	3.7730	3.7731	-0.9136	25.02	0.14	-0.750			
0.3172	20299.37	3.7700	3.7701	-0.9197	25.02	0.14	-0.750			
0.3200	20477.51	3.7670	3.7667	-0.9303	25.02	0.14	-0.750			
0.3228	20658.17	3.7640	3.7639	-0.9223	25.02	0.14	-0.750			
0.3256	20835.76	3.7610	3.7610	-0.9229	25.02	0.14	-0.750			
0.3284	21015.69	3.7580	3.7583	-0.9271	25.02	0.14	-0.750			
0.3311	21191.81	3.7550	3.7547	-0.9327	25.02	0.14	-0.750			
0.3339	21368.35	3.7520	3.7520	-0.9245	25.03	0.15	-0.750			
0.3366	21545.01	3.7490	3.7489	-0.9224	25.03	0.15	-0.750			
0.3394	21721.20	3.7460	3.7461	-0.9229	25.04	0.16	-0.750			
0.3423	21904.73	3.7430	3.7431	-0.9362	25.04	0.16	-0.750			
0.3450	22080.93	3.7400	3.7400	-0.9344	25.04	0.16	-0.750			
0.3478	22258.91	3.7370	3.7370	-0.9385	25.04	0.16	-0.750			
0.3506	22439.58	3.7340	3.7340	-0.9382	25.04	0.16	-0.750			
0.3535	22623.20	3.7310	3.7311	-0.9489	25.04	0.16	-0.750			
0.3563	22805.28	3.7280	3.7280	-0.9655	25.04	0.16	-0.750			
0.3593	22992.40	3.7250	3.7250	-0.9690	25.04	0.16	-0.750			
0.3622	23179.93	3.7220	3.7218	-0.9720	25.04	0.16	-0.750			
0.3651	23366.45	3.7190	3.7189	-0.9771	25.04	0.16	-0.750			
0.3680	23553.70	3.7160	3.7159	-1.0065	25.04	0.16	-0.750			
0.3711	23753.00	3.7130	3.7129	-1.0113	25.04	0.16	-0.750			
0.3742	23947.61	3.7100	3.7097	-1.0151	25.04	0.16	-0.750			
0.3772	24140.04	3.7070	3.7071	-1.0239	25.04	0.16	-0.750	0.389	0.500	
0.3804	24342.98	3.7040	3.7039	-1.0504	25.04	0.16	-0.750			
0.3835	24544.00	3.7010	3.7008	-1.0576	25.04	0.16	-0.750			
0.3866	24739.92	3.6980	3.6981	-1.0623	25.04	0.16	-0.750			
0.3899	24951.94	3.6950	3.6951	-1.1072	25.04	0.16	-0.750			
0.3932	25167.36	3.6920	3.6919	-1.1404	25.04	0.16	-0.750			
0.3967	25391.72	3.6890	3.6888	-1.1457	25.04	0.16	-0.750			
0.4002	25612.40	3.6860	3.6859	-1.1619	25.03	0.15	-0.750			
0.4037	25837.40	3.6830	3.6834	-1.1824	25.03	0.15	-0.750			
0.4073	26065.16	3.6800	3.6798	-1.2084	25.02	0.14	-0.750			
0.4108	26294.38	3.6770	3.6769	-1.2263	25.02	0.14	-0.750			
0.4145	26528.29	3.6740	3.6738	-1.2712	25.01	0.13	-0.750			
0.4184	26778.85	3.6710	3.6710	-1.3016	25.01	0.13	-0.750			
0.4224	27035.39	3.6680	3.6680	-1.3288	25.01	0.13	-0.750			
0.4264	27292.18	3.6650	3.6650	-1.3638	25.00	0.12	-0.750			
0.4306	27557.03	3.6620	3.6614	-1.3790	25.00	0.12	-0.750			
0.4347	27823.13	3.6590	3.6591	-1.4250	24.99	0.11	-0.750			
0.4391	28099.92	3.6560	3.6559	-1.4583	24.98	0.10	-0.750			
0.4435	28384.55	3.6530	3.6527	-1.4839	24.97	0.09	-0.750			
0.4481	28675.67	3.6500	3.6497	-1.5185	24.96	0.08	-0.750			
0.4527	28973.09	3.6470	3.6474	-1.5605	24.95	0.07	-0.750			
0.4574	29272.71	3.6440	3.6438	-1.5890	24.94	0.06	-0.750			
0.4624	29592.80	3.6410	3.6412	-1.6443	24.94	0.06	-0.750			
0.4673	29909.38	3.6380	3.6379	-1.6720	24.93	0.05	-0.750			
0.4724	30232.26	3.6350	3.6348	-1.7134	24.92	0.04	-0.750			
0.4776	30565.15	3.6320	3.6319	-1.7632	24.90	0.02	-0.750			
0.4829	30906.07	3.6290	3.6291	-1.8080	24.89	0.01	-0.750			
0.4884	31255.17	3.6260	3.6259	-1.8236	24.88	0.00	-0.750			
0.4938	31605.40	3.6230	3.6229	-1.8784	24.88	-0.00	-0.750			
0.4997	31978.38	3.6200	3.6198	-1.8897	24.87	-0.01	-0.750			
0.5055	32349.16	3.6170	3.6171	-1.9189	24.86	-0.02	-0.750			
0.5113	32723.24	3.6140	3.6139	-1.9682	24.85	-0.03	-0.750			
0.5172	33101.68	3.6110	3.6112	-1.9915	24.84	-0.04	-0.750			
0.5233	33492.58	3.6080	3.6080	-2.0421	24.83	-0.05	-0.750			
0.5296	33893.71	3.6050	3.6050	-2.0883	24.82	-0.06	-0.750			
0.5360	34305.41	3.6020	3.6021	-2.1359	24.81	-0.07	-0.750			
0.5422	34701.86	3.5990	3.5990	-2.1569	24.80	-0.08	-0.750			
0.5487	35117.31	3.5960	3.5958	-2.1940	24.79	-0.09	-0.750			
0.5553	35540.69	3.5930	3.5930	-2.2494	24.78	-0.10	-0.750			
0.5621	35974.29	3.5900	3.5903	-2.2799	24.77	-0.11	-0.750			
0.5689	36411.87	3.5870	3.5870	-2.2898	24.77	-0.11	-0.750			
0.5759	36860.14	3.5840	3.5837	-2.3002	24.75	-0.13	-0.750			
0.5829	37307.15	3.5810	3.5812	-2.3499	24.75	-0.13	-0.750			
0.5900	37762.10	3.5780	3.5783	-2.3839	24.74	-0.14	-0.750			
0.5974	38235.35	3.5750	3.5750	-2.4035	24.74	-0.14	-0.750			
0.6047	38702.97	3.5720	3.5719	-2.4270	24.73	-0.15	-0.750			
0.6120	39170.41	3.5690	3.5690	-2.4243	24.72	-0.16	-0.750			
0.6190	39617.12	3.5660	3.5663	-2.3848	24.72	-0.16	-0.750			
0.6264	40086.90	3.5630	3.5632	-2.3845	24.72	-0.16	-0.750			
0.6334	40536.88	3.5600	3.5597	-2.3770	24.72	-0.16	-0.750			
0.6406	41001.01	3.5570	3.5566	-2.4061	24.72	-0.16	-0.750			
0.6479	41464.59	3.5540	3.5543	-2.3680	24.72	-0.16	-0.750			
0.6550	41921.42	3.5510	3.5511	-2.3533	24.72	-0.16	-0.750			
0.6622	42380.88	3.5480	3.5480	-2.3619	24.72	-0.16	-0.750			
0.6691	42821.21	3.5450	3.5446	-2.3604	24.72	-0.16	-0.750			
0.6761	43267.20	3.5420	3.5418	-2.3081	24.74	-0.14	-0.750			
0.6831	43715.78	3.5390	3.5391	-2.2630	24.74	-0.14	-0.750			
0.6899	44151.99	3.5360	3.5360	-2.2023	24.75	-0.13	-0.750			
0.6965	44578.44	3.5330	3.5330	-2.1297	24.75	-0.13	-0.750			
0.7027	44975.53	3.5300	3.5301	-2.0543	24.76	-0.12	-0.750			
0.7087	45356.71	3.5270	3.5269	-1.9892	24.77	-0.11	-0.750			
0.7146	45732.48	3.5240	3.5240	-1.9248	24.78	-0.10	-0.750			
0.7203	46099.03	3.5210	3.5208	-1.8707	24.79	-0.09	-0.750			
0.7258	46449.23	3.5180	3.5179	-1.8196	24.81	-0.07	-0.750			
0.7312	46796.04	3.5150	3.5149	-1.7753	24.83	-0.05	-0.750			
0.7365	47136.79	3.5120	3.5120	-1.7452	24.84	-0.04	-0.750			
0.7417	47465.98	3.5090	3.5092	-1.7044	24.86	-0.02	-0.750			
0.7467	47789.45	3.5060	3.5063	-1.6770	24.88	-0.00	-0.750			
0.7517	48105.92	3.5030	3.5031	-1.6167	24.89	0.01	-0.750			
