Ah_balance (normalized)	Ah_balance (mAh)	Voltage - fit (V)	Voltage -  interpolate (V)	dQ/dV (1/V)	Temperature (°C)	Temperature - diff (°C)	Current (C)	R_DC 0ms (mOhm)	R_DC 50ms (mOhm)	R_DC 50 ms PEC (mOhm)
0.0003	21.24	4.1630	4.1627	-0.1325	24.79	0.03	-0.750			
0.0008	50.92	4.1600	4.1600	-0.1777	24.79	0.03	-0.750			
0.0014	89.08	4.1570	4.1570	-0.2225	24.78	0.02	-0.750			
0.0021	136.69	4.1540	4.1539	-0.2669	24.78	0.02	-0.750			
0.0030	192.41	4.1510	4.1511	-0.3092	24.78	0.02	-0.750			
0.0040	256.67	4.1480	4.1479	-0.3493	24.78	0.02	-0.750			
0.0051	328.05	4.1450	4.1451	-0.3894	24.77	0.01	-0.750			
0.0064	407.23	4.1420	4.1420	-0.4269	24.77	0.01	-0.750			
0.0077	492.56	4.1390	4.1388	-0.4616	24.76	0.00	-0.750			
0.0091	585.20	4.1360	4.1363	-0.4936	24.76	-0.00	-0.750			
0.0107	683.58	4.1330	4.1332	-0.5240	24.75	-0.01	-0.750			
0.0123	788.27	4.1300	4.1300	-0.5542	24.75	-0.01	-0.750			
0.0140	898.03	4.1270	4.1269	-0.5791	24.74	-0.02	-0.750			
0.0158	1011.10	4.1240	4.1241	-0.6078	24.74	-0.02	-0.750			
0.0177	1131.63	4.1210	4.1209	-0.6254	24.73	-0.03	-0.750			
0.0196	1256.65	4.1180	4.1179	-0.6411	24.73	-0.03	-0.750			
0.0216	1381.03	4.1150	4.1154	-0.6580	24.72	-0.04	-0.750			
0.0236	1509.04	4.1120	4.1118	-0.6697	24.72	-0.04	-0.750			
0.0256	1637.09	4.1090	4.1090	-0.6834	24.72	-0.04	-0.750			
0.0277	1770.16	4.1060	4.1060	-0.6883	24.72	-0.04	-0.750			
0.0298	1906.26	4.1030	4.1030	-0.6982	24.72	-0.04	-0.750			
0.0319	2041.52	4.1000	4.0999	-0.7014	24.72	-0.04	-0.750			
0.0340	2177.35	4.0970	4.0978	-0.7024	24.72	-0.04	-0.750			
0.0361	2309.35	4.0940	4.0939	-0.7034	24.72	-0.04	-0.750			
0.0382	2442.13	4.0910	4.0910	-0.7116	24.71	-0.05	-0.750			
0.0403	2578.34	4.0880	4.0880	-0.7215	24.71	-0.05	-0.750			
0.0425	2719.76	4.0850	4.0849	-0.7310	24.71	-0.05	-0.750			
0.0447	2862.05	4.0820	4.0818	-0.7359	24.70	-0.06	-0.750			
0.0469	3004.11	4.0790	4.0794	-0.7423	24.70	-0.06	-0.750			
0.0492	3147.64	4.0760	4.0761	-0.7446	24.70	-0.06	-0.750			
0.0514	3289.68	4.0730	4.0728	-0.7421	24.70	-0.06	-0.750			
0.0536	3430.14	4.0700	4.0702	-0.7403	24.70	-0.06	-0.750			
0.0558	3574.16	4.0670	4.0670	-0.7497	24.70	-0.06	-0.750			
0.0581	3720.30	4.0640	4.0641	-0.7585	24.70	-0.06	-0.750			
0.0604	3865.63	4.0610	4.0609	-0.7612	24.70	-0.06	-0.750			
0.0626	4007.47	4.0580	4.0581	-0.7769	24.70	-0.06	-0.750			
0.0651	4163.24	4.0550	4.0550	-0.7769	24.70	-0.06	-0.750			
0.0674	4313.74	4.0520	4.0519	-0.7779	24.69	-0.07	-0.750			
0.0697	4463.79	4.0490	4.0488	-0.7725	24.69	-0.07	-0.750			
0.0721	4612.12	4.0460	4.0457	-0.7690	24.69	-0.07	-0.750			
0.0744	4758.44	4.0430	4.0429	-0.7664	24.69	-0.07	-0.750			
0.0766	4902.71	4.0400	4.0400	-0.7722	24.69	-0.07	-0.750			
0.0789	5050.98	4.0370	4.0369	-0.7621	24.70	-0.06	-0.750			
0.0813	5203.62	4.0340	4.0339	-0.7790	24.70	-0.06	-0.750			
0.0836	5351.27	4.0310	4.0315	-0.7825	24.70	-0.06	-0.750			
0.0860	5502.20	4.0280	4.0279	-0.7849	24.70	-0.06	-0.750			
0.0883	5651.90	4.0250	4.0248	-0.7838	24.70	-0.06	-0.750			
0.0907	5801.66	4.0220	4.0220	-0.7819	24.70	-0.06	-0.750			
0.0930	5954.08	4.0190	4.0191	-0.7917	24.70	-0.06	-0.750			
0.0954	6106.85	4.0160	4.0160	-0.7925	24.70	-0.06	-0.750			
0.0978	6258.17	4.0130	4.0128	-0.7838	24.70	-0.06	-0.750			
0.1001	6408.21	4.0100	4.0100	-0.7923	24.70	-0.06	-0.750			
0.1025	6561.33	4.0070	4.0071	-0.7981	24.70	-0.06	-0.750			
0.1050	6716.94	4.0040	4.0037	-0.7936	24.70	-0.06	-0.750			
0.1073	6869.13	4.0010	4.0008	-0.7945	24.70	-0.06	-0.750			
0.1097	7020.18	3.9980	3.9977	-0.7931	24.70	-0.06	-0.750			
0.1120	7170.39	3.9950	3.9949	-0.8026	24.70	-0.06	-0.750			
0.1145	7325.11	3.9920	3.9920	-0.8028	24.70	-0.06	-0.750			
0.1168	7476.43	3.9890	3.9890	-0.7938	24.70	-0.06	-0.750			
0.1194	7638.52	3.9860	3.9859	-0.8062	24.70	-0.06	-0.750			
0.1218	7793.73	3.9830	3.9834	-0.8036	24.70	-0.06	-0.750			
0.1241	7945.35	3.9800	3.9801	-0.7969	24.70	-0.06	-0.750			
0.1265	8097.12	3.9770	3.9769	-0.7969	24.70	-0.06	-0.750			
0.1289	8248.89	3.9740	3.9740	-0.7973	24.71	-0.05	-0.750			
0.1313	8401.22	3.9710	3.9710	-0.8076	24.71	-0.05	-0.750			
0.1337	8557.04	3.9680	3.9682	-0.8091	24.71	-0.05	-0.750			
0.1361	8708.06	3.9650	3.9650	-0.8391	24.71	-0.05	-0.750			
0.1386	8872.06	3.9620	3.9619	-0.8384	24.71	-0.05	-0.750			
0.1412	9037.30	3.9590	3.9588	-0.8330	24.72	-0.04	-0.750			
0.1437	9198.38	3.9560	3.9559	-0.8302	24.72	-0.04	-0.750			
0.1463	9360.93	3.9530	3.9540	-0.8290	24.72	-0.04	-0.750			
0.1487	9518.46	3.9500	3.9498	-0.8240	24.72	-0.04	-0.750			
0.1512	9674.55	3.9470	3.9469	-0.8339	24.72	-0.04	-0.750			
0.1536	9832.40	3.9440	3.9440	-0.8301	24.72	-0.04	-0.750			
0.1562	9995.88	3.9410	3.9408	-0.8409	24.72	-0.04	-0.750			
0.1587	10158.04	3.9380	3.9385	-0.8385	24.72	-0.04	-0.750			
0.1612	10317.95	3.9350	3.9349	-0.8401	24.72	-0.04	-0.750			
0.1637	10478.27	3.9320	3.9320	-0.8468	24.72	-0.04	-0.750			
0.1662	10638.75	3.9290	3.9289	-0.8429	24.73	-0.03	-0.750			
0.1688	10803.71	3.9260	3.9259	-0.8570	24.73	-0.03	-0.750			
0.1714	10968.99	3.9230	3.9233	-0.8597	24.73	-0.03	-0.750			
0.1740	11133.24	3.9200	3.9200	-0.8740	24.73	-0.03	-0.750			
0.1766	11303.55	3.9170	3.9169	-0.8693	24.73	-0.03	-0.750			
0.1792	11468.82	3.9140	3.9139	-0.8616	24.73	-0.03	-0.750			
0.1818	11636.82	3.9110	3.9109	-0.8681	24.73	-0.03	-0.750			
0.1844	11802.46	3.9080	3.9082	-0.8670	24.73	-0.03	-0.750			
0.1870	11966.73	3.9050	3.9049	-0.8668	24.73	-0.03	-0.750			
0.1896	12133.51	3.9020	3.9020	-0.8636	24.73	-0.03	-0.750			
0.1921	12296.31	3.8990	3.8990	-0.8595	24.74	-0.02	-0.750			
0.1948	12465.60	3.8960	3.8957	-0.8717	24.74	-0.02	-0.750			
0.1974	12633.34	3.8930	3.8931	-0.8716	24.74	-0.02	-0.750			
0.2000	12799.67	3.8900	3.8899	-0.8701	24.74	-0.02	-0.750			
0.2026	12966.05	3.8870	3.8870	-0.8704	24.74	-0.02	-0.750			
0.2052	13132.94	3.8840	3.8841	-0.8623	24.74	-0.02	-0.750			
0.2078	13301.27	3.8810	3.8808	-0.8697	24.74	-0.02	-0.750			
0.2104	13467.60	3.8780	3.8781	-0.8690	24.74	-0.02	-0.750			
0.2130	13634.52	3.8750	3.8749	-0.8752	24.74	-0.02	-0.750			
0.2157	13804.32	3.8720	3.8718	-0.8727	24.75	-0.01	-0.750			
0.2183	13970.82	3.8690	3.8690	-0.8685	24.75	-0.01	-0.750			
0.2209	14138.68	3.8660	3.8659	-0.8730	24.75	-0.01	-0.750			
0.2236	14308.03	3.8630	3.8629	-0.8783	24.75	-0.01	-0.750			
0.2262	14475.19	3.8600	3.8599	-0.8780	24.76	-0.00	-0.750			
0.2288	14641.82	3.8570	3.8569	-0.8747	24.76	0.00	-0.750			
0.2314	14812.76	3.8540	3.8540	-0.8859	24.77	0.01	-0.750			
0.2341	14981.96	3.8510	3.8511	-0.8843	24.77	0.01	-0.750			
0.2367	15150.92	3.8480	3.8480	-0.8868	24.77	0.01	-0.750			
0.2394	15321.86	3.8450	3.8449	-0.8852	24.77	0.01	-0.750			
0.2421	15491.63	3.8420	3.8419	-0.8806	24.78	0.02	-0.750			
0.2447	15661.83	3.8390	3.8390	-0.8831	24.78	0.02	-0.750			
0.2474	15831.10	3.8360	3.8361	-0.8798	24.78	0.02	-0.750			
0.2500	15998.34	3.8330	3.8330	-0.8858	24.79	0.03	-0.750			
0.2526	16169.13	3.8300	3.8299	-0.8856	24.79	0.03	-0.750			
0.2553	16339.77	3.8270	3.8269	-0.8785	24.79	0.03	-0.750			
0.2580	16510.01	3.8240	3.8239	-0.8794	24.80	0.04	-0.750			
0.2606	16680.18	3.8210	3.8209	-0.8769	24.80	0.04	-0.750			
0.2632	16846.50	3.8180	3.8180	-0.8725	24.80	0.04	-0.750			
0.2658	17012.68	3.8150	3.8149	-0.8605	24.80	0.04	-0.750			
0.2684	17174.96	3.8120	3.8120	-0.8587	24.80	0.04	-0.750			
0.2710	17341.94	3.8090	3.8092	-0.8680	24.80	0.04	-0.750			
0.2736	17509.00	3.8060	3.8059	-0.8647	24.80	0.04	-0.750			
0.2762	17676.30	3.8030	3.8029	-0.8551	24.81	0.05	-0.750			
0.2788	17840.90	3.8000	3.8000	-0.8474	24.81	0.05	-0.750			
0.2813	18002.54	3.7970	3.7970	-0.8339	24.82	0.06	-0.750			
0.2838	18162.20	3.7940	3.7943	-0.8379	24.82	0.06	-0.750			
0.2862	18318.42	3.7910	3.7910	-0.8335	24.82	0.06	-0.750			
0.2887	18477.67	3.7880	3.7879	-0.8397	24.83	0.07	-0.750			
0.2913	18643.36	3.7850	3.7848	-0.8431	24.83	0.07	-0.750			
0.2939	18807.40	3.7820	3.7820	-0.8507	24.84	0.08	-0.750			
0.2964	18969.98	3.7790	3.7805	-0.8482	24.84	0.08	-0.750			
0.2990	19133.14	3.7760	3.7758	-0.8518	24.84	0.08	-0.750			
0.3015	19295.59	3.7730	3.7728	-0.8372	24.84	0.08	-0.750			
0.3040	19454.16	3.7700	3.7701	-0.8296	24.85	0.09	-0.750			
0.3064	19610.91	3.7670	3.7671	-0.8258	24.85	0.09	-0.750			
0.3090	19775.47	3.7640	3.7645	-0.8303	24.85	0.09	-0.750			
0.3114	19931.71	3.7610	3.7609	-0.8221	24.85	0.09	-0.750			
0.3139	20087.16	3.7580	3.7581	-0.8231	24.86	0.10	-0.750			
0.3164	20247.45	3.7550	3.7548	-0.8210	24.86	0.10	-0.750			
0.3189	20407.93	3.7520	3.7520	-0.8272	24.87	0.11	-0.750			
0.3213	20564.32	3.7490	3.7495	-0.8260	24.87	0.11	-0.750			
0.3237	20716.57	3.7460	3.7460	-0.8495	24.87	0.11	-0.750			
0.3263	20884.51	3.7430	3.7428	-0.8489	24.87	0.11	-0.750			
0.3289	21046.72	3.7400	3.7399	-0.8523	24.88	0.12	-0.750			
0.3315	21215.50	3.7370	3.7368	-0.8678	24.88	0.12	-0.750			
0.3341	21381.93	3.7340	3.7347	-0.8706	24.88	0.12	-0.750			
0.3367	21548.31	3.7310	3.7309	-0.8829	24.88	0.12	-0.750			
0.3393	21714.03	3.7280	3.7280	-0.8833	24.88	0.12	-0.750			
0.3419	21881.04	3.7250	3.7249	-0.8878	24.88	0.12	-0.750			
0.3446	22053.22	3.7220	3.7220	-0.9630	24.88	0.12	-0.750			
0.3475	22239.82	3.7190	3.7187	-0.9990	24.88	0.12	-0.750			
0.3507	22443.14	3.7160	3.7155	-1.0220	24.88	0.12	-0.750			
0.3539	22648.59	3.7130	3.7134	-1.0413	24.88	0.12	-0.750			
0.3571	22852.98	3.7100	3.7100	-1.0333	24.88	0.12	-0.750			
0.3602	23053.32	3.7070	3.7070	-1.0489	24.88	0.12	-0.750			
0.3633	23250.47	3.7040	3.7038	-1.0236	24.88	0.12	-0.750			
0.3663	23440.88	3.7010	3.7014	-1.0094	24.88	0.12	-0.750	0.383	0.509	
0.3693	23632.10	3.6980	3.6979	-1.0183	24.88	0.12	-0.750			
0.3724	23830.83	3.6950	3.6950	-1.0464	24.88	0.12	-0.750			
0.3755	24030.54	3.6920	3.6918	-1.0662	24.88	0.12	-0.750			
0.3787	24234.38	3.6890	3.6890	-1.0897	24.88	0.12	-0.750			
0.3819	24443.17	3.6860	3.6860	-1.1092	24.88	0.12	-0.750			
0.3855	24668.92	3.6830	3.6831	-1.1606	24.88	0.12	-0.750			
0.3890	24895.12	3.6800	3.6799	-1.1885	24.87	0.11	-0.750			
0.3926	25124.10	3.6770	3.6770	-1.2074	24.87	0.11	-0.750			
0.3962	25357.90	3.6740	3.6742	-1.2348	24.86	0.10	-0.750			
0.4000	25599.87	3.6710	3.6709	-1.2566	24.85	0.09	-0.750			
0.4038	25842.64	3.6680	3.6681	-1.2842	24.85	0.09	-0.750			
0.4077	26092.36	3.6650	3.6649	-1.3091	24.84	0.08	-0.750			
0.4117	26347.89	3.6620	3.6618	-1.3383	24.84	0.08	-0.750			
0.4156	26601.48	3.6590	3.6590	-1.3722	24.83	0.07	-0.750			
0.4198	26869.36	3.6560	3.6559	-1.3990	24.82	0.06	-0.750			
0.4241	27143.33	3.6530	3.6528	-1.4175	24.82	0.06	-0.750			
0.4285	27423.46	3.6500	3.6498	-1.4668	24.81	0.05	-0.750			
0.4330	27712.44	3.6470	3.6472	-1.4920	24.80	0.04	-0.750			
0.4375	28000.07	3.6440	3.6436	-1.5334	24.79	0.03	-0.750			
0.4422	28297.82	3.6410	3.6415	-1.5575	24.79	0.03	-0.750			
0.4468	28596.15	3.6380	3.6384	-1.5805	24.78	0.02	-0.750			
0.4517	28906.72	3.6350	3.6348	-1.5808	24.77	0.01	-0.750			
0.4565	29214.51	3.6320	3.6317	-1.5928	24.76	0.00	-0.750			
0.4612	29514.71	3.6290	3.6287	-1.6069	24.76	-0.00	-0.750			
0.4662	29833.98	3.6260	3.6258	-1.6892	24.75	-0.01	-0.750			
0.4712	30157.56	3.6230	3.6231	-1.7036	24.75	-0.01	-0.750			
0.4764	30489.17	3.6200	3.6202	-1.7583	24.74	-0.02	-0.750			
0.4818	30835.20	3.6170	3.6174	-1.7885	24.73	-0.03	-0.750			
0.4874	31195.72	3.6140	3.6139	-1.8141	24.73	-0.03	-0.750			
0.4930	31549.53	3.6110	3.6109	-1.8517	24.72	-0.04	-0.750			
0.4984	31897.72	3.6080	3.6076	-1.8862	24.72	-0.04	-0.750			
0.5042	32269.52	3.6050	3.6046	-1.9311	24.71	-0.05	-0.750			
0.5100	32642.57	3.6020	3.6019	-1.9548	24.70	-0.06	-0.750			
0.5161	33028.47	3.5990	3.5988	-1.9795	24.69	-0.07	-0.750			
0.5219	33403.60	3.5960	3.5963	-2.0205	24.68	-0.08	-0.750			
0.5279	33785.80	3.5930	3.5930	-2.0882	24.67	-0.09	-0.750			
0.5343	34195.61	3.5900	3.5896	-2.1221	24.67	-0.09	-0.750			
0.5407	34604.96	3.5870	3.5874	-2.2264	24.66	-0.10	-0.750			
0.5477	35052.08	3.5840	3.5842	-2.2445	24.66	-0.10	-0.750			
0.5544	35483.44	3.5810	3.5812	-2.2284	24.65	-0.11	-0.750			
0.5611	35908.85	3.5780	3.5777	-2.2232	24.65	-0.11	-0.750			
0.5677	36333.53	3.5750	3.5747	-2.2247	24.64	-0.12	-0.750			
0.5744	36762.83	3.5720	3.5717	-2.2703	24.64	-0.12	-0.750			
0.5815	37213.83	3.5690	3.5687	-2.3136	24.64	-0.12	-0.750			
0.5885	37661.47	3.5660	3.5660	-2.3145	24.64	-0.12	-0.750			
0.5954	38102.55	3.5630	3.5634	-2.3079	24.63	-0.13	-0.750			
0.6023	38548.90	3.5600	3.5600	-2.2896	24.63	-0.13	-0.750			
0.6092	38988.24	3.5570	3.5569	-2.2643	24.63	-0.13	-0.750			
0.6160	39423.34	3.5540	3.5541	-2.3164	24.62	-0.14	-0.750			
0.6232	39887.78	3.5510	3.5513	-2.3008	24.62	-0.14	-0.750			
0.6301	40327.10	3.5480	3.5478	-2.2255	24.63	-0.13	-0.750			
0.6366	40739.69	3.5450	3.5447	-2.2182	24.64	-0.12	-0.750			
0.6430	41151.04	3.5420	3.5426	-2.1654	24.64	-0.12	-0.750			
0.6495	41569.18	3.5390	3.5387	-2.1558	24.65	-0.11	-0.750			
0.6562	41997.39	3.5360	3.5362	-2.1233	24.66	-0.10	-0.750			
0.6624	42391.29	3.5330	3.5333	-2.0389	24.67	-0.09	-0.750			
0.6685	42784.81	3.5300	3.5299	-1.9637	24.68	-0.08	-0.750			
0.6743	43153.65	3.5270	3.5268	-1.9273	24.68	-0.08	-0.750			
0.6800	43519.67	3.5240	3.5245	-1.8743	24.69	-0.07	-0.750			
0.6855	43870.75	3.5210	3.5210	-1.8041	24.70	-0.06	-0.750			
0.6910	44222.37	3.5180	3.5179	-1.7891	24.72	-0.04	-0.750			
0.6962	44555.21	3.5150	3.5148	-1.6977	24.73	-0.03	-0.750			
0.7013	44882.68	3.5120	3.5115	-1.6697	24.75	-0.01	-0.750			
0.7062	45194.14	3.5090	3.5086	-1.6014	24.76	0.00	-0.750			
0.7108	45490.17	3.5060	3.5058	-1.5610	24.77	0.01	-0.750			
0.7154	45787.37	3.5030	3.5031	-1.4927	24.79	0.03	-0.750			
0.7199	46071.09	3.5000	3.5000	-1.4580	24.80	0.04	-0.750			
0.7241	46344.91	3.4970	3.4969	-1.4236	24.81	0.05	-0.750			
0.7285	46623.93	3.4940	3.4939	-1.3643	24.83	0.07	-0.750			
0.7326	46883.34	3.4910	3.4909	-1.3999	24.84	0.08	-0.750			
