Relative time (s)	Voltage (V)	Temperature (°C)	
4.670	3.0065	24.86	
64.670	3.0116	24.84	
124.670	3.0139	24.82	
184.670	3.0158	24.80	
244.670	3.0175	24.76	
304.670	3.0191	24.74	
364.670	3.0204	24.72	
424.670	3.0219	24.68	
484.670	3.0231	24.66	
544.670	3.0243	24.64	
604.670	3.0256	24.62	
664.670	3.0267	24.59	
724.670	3.0278	24.56	
784.670	3.0288	24.54	
844.670	3.0298	24.52	
903.306	3.0308	24.50	
