Relative time (s)	Voltage (V)	Temperature (°C)	
28.813	3.0123	25.11	
88.813	3.0160	25.09	
148.813	3.0184	25.07	
208.813	3.0204	25.03	
268.813	3.0222	25.03	
328.813	3.0238	25.00	
388.813	3.0253	24.97	
448.813	3.0267	24.94	
508.813	3.0281	24.91	
568.813	3.0293	24.89	
628.813	3.0305	24.87	
688.813	3.0317	24.83	
748.813	3.0328	24.81	
808.813	3.0339	24.79	
868.813	3.0350	24.77	
903.306	3.0352	24.76	
