Relative time (s)	Voltage (V)	Temperature (°C)	
43.263	3.5049	6.87	
103.263	3.5158	6.87	
163.263	3.5205	6.85	
223.263	3.5241	6.82	
283.263	3.5272	6.78	
343.263	3.5302	6.73	
403.263	3.5328	6.67	
463.263	3.5352	6.63	
523.263	3.5373	6.57	
583.263	3.5390	6.51	
643.263	3.5409	6.45	
703.263	3.5423	6.41	
763.263	3.5435	6.35	
823.263	3.5450	6.30	
883.263	3.5458	6.25	
943.263	3.5467	6.20	
1003.263	3.5476	6.15	
1063.263	3.5484	6.11	
1123.263	3.5490	6.07	
1183.263	3.5497	6.02	
1217.263	3.5502	5.99	
