Ah_balance (normalized)	Ah_balance (mAh)	Voltage - fit (V)	Voltage -  interpolate (V)	dQ/dV (1/V)	Temperature (°C)	Temperature - diff (°C)	Current (C)	R_DC 0ms (mOhm)	R_DC 50ms (mOhm)	R_DC 50 ms PEC (mOhm)
0.0949	6076.49	4.0050	4.0044	-0.0917	5.99	0.00	-0.750			
0.0953	6096.72	4.0020	4.0018	-0.1191	5.99	0.00	-0.750			
0.0957	6122.76	3.9990	3.9989	-0.1455	5.99	0.00	-0.750			
0.0961	6152.78	3.9960	3.9960	-0.1725	5.99	-0.00	-0.750			
0.0967	6188.63	3.9930	3.9931	-0.1985	5.99	-0.00	-0.750			
0.0973	6229.78	3.9900	3.9900	-0.2223	5.99	-0.00	-0.750			
0.0981	6275.24	3.9870	3.9870	-0.2485	5.99	-0.00	-0.750			
0.0988	6325.11	3.9840	3.9841	-0.2733	5.98	-0.01	-0.750			
0.0997	6380.04	3.9810	3.9811	-0.2980	5.98	-0.01	-0.750			
0.1006	6439.75	3.9780	3.9778	-0.3232	5.98	-0.01	-0.750			
0.1016	6503.51	3.9750	3.9750	-0.3485	5.98	-0.01	-0.750			
0.1027	6573.32	3.9720	3.9721	-0.3746	5.97	-0.02	-0.750			
0.1039	6647.15	3.9690	3.9691	-0.4038	5.97	-0.02	-0.750			
0.1051	6728.15	3.9660	3.9659	-0.4282	5.97	-0.02	-0.750			
0.1065	6813.33	3.9630	3.9630	-0.4539	5.97	-0.02	-0.750			
0.1079	6902.77	3.9600	3.9599	-0.4800	5.96	-0.03	-0.750			
0.1093	6997.39	3.9570	3.9571	-0.5034	5.96	-0.03	-0.750			
0.1109	7096.65	3.9540	3.9539	-0.5259	5.96	-0.03	-0.750			
0.1125	7199.48	3.9510	3.9510	-0.5509	5.96	-0.03	-0.750			
0.1142	7306.41	3.9480	3.9481	-0.5727	5.96	-0.03	-0.750			
0.1159	7420.27	3.9450	3.9450	-0.5974	5.95	-0.04	-0.750			
0.1178	7538.18	3.9420	3.9420	-0.6153	5.95	-0.04	-0.750			
0.1197	7658.33	3.9390	3.9390	-0.6327	5.95	-0.04	-0.750			
0.1216	7782.29	3.9360	3.9361	-0.6491	5.95	-0.04	-0.750			
0.1236	7908.23	3.9330	3.9329	-0.6633	5.95	-0.04	-0.750			
0.1256	8036.09	3.9300	3.9300	-0.6745	5.95	-0.04	-0.750			
0.1276	8167.48	3.9270	3.9270	-0.6881	5.95	-0.04	-0.750			
0.1297	8301.45	3.9240	3.9240	-0.6993	5.95	-0.04	-0.750			
0.1318	8437.54	3.9210	3.9209	-0.7062	5.95	-0.04	-0.750			
0.1340	8573.12	3.9180	3.9182	-0.7171	5.95	-0.04	-0.750			
0.1361	8712.06	3.9150	3.9150	-0.7246	5.95	-0.04	-0.750			
0.1383	8851.11	3.9120	3.9120	-0.7339	5.96	-0.03	-0.750			
0.1405	8994.04	3.9090	3.9090	-0.7407	5.96	-0.03	-0.750			
0.1428	9137.16	3.9060	3.9060	-0.7470	5.96	-0.03	-0.750			
0.1450	9281.47	3.9030	3.9029	-0.7528	5.97	-0.02	-0.750			
0.1473	9427.11	3.9000	3.9001	-0.7582	5.97	-0.02	-0.750			
0.1496	9572.04	3.8970	3.8969	-0.7621	5.97	-0.02	-0.750			
0.1519	9719.29	3.8940	3.8940	-0.7684	5.97	-0.02	-0.750			
0.1542	9866.83	3.8910	3.8910	-0.7675	5.98	-0.01	-0.750			
0.1565	10015.96	3.8880	3.8881	-0.7750	5.98	-0.01	-0.750			
0.1589	10166.99	3.8850	3.8850	-0.7746	5.98	-0.01	-0.750			
0.1612	10315.40	3.8820	3.8820	-0.7734	5.98	-0.01	-0.750			
0.1635	10461.97	3.8790	3.8790	-0.7814	5.99	-0.00	-0.750			
0.1658	10611.90	3.8760	3.8761	-0.7860	5.99	0.00	-0.750			
0.1682	10763.37	3.8730	3.8728	-0.7904	6.00	0.01	-0.750			
0.1706	10916.14	3.8700	3.8701	-0.7974	6.00	0.01	-0.750			
0.1730	11071.71	3.8670	3.8670	-0.7988	6.00	0.01	-0.750			
0.1754	11225.83	3.8640	3.8640	-0.8040	6.01	0.02	-0.750			
0.1778	11379.82	3.8610	3.8610	-0.8013	6.02	0.03	-0.750			
0.1802	11532.16	3.8580	3.8580	-0.8006	6.02	0.03	-0.750			
0.1826	11687.19	3.8550	3.8550	-0.8052	6.03	0.04	-0.750			
0.1850	11841.56	3.8520	3.8519	-0.8084	6.03	0.04	-0.750			
0.1875	11997.35	3.8490	3.8490	-0.8094	6.04	0.05	-0.750			
0.1899	12153.43	3.8460	3.8459	-0.8127	6.05	0.06	-0.750			
0.1923	12308.66	3.8430	3.8431	-0.8135	6.05	0.06	-0.750			
0.1948	12467.08	3.8400	3.8400	-0.8138	6.06	0.07	-0.750			
0.1972	12623.50	3.8370	3.8370	-0.8116	6.06	0.07	-0.750			
0.1997	12777.80	3.8340	3.8340	-0.8166	6.07	0.08	-0.750			
0.2021	12933.68	3.8310	3.8311	-0.8181	6.07	0.08	-0.750			
0.2046	13092.03	3.8280	3.8279	-0.8214	6.08	0.09	-0.750			
0.2070	13249.77	3.8250	3.8249	-0.8216	6.09	0.10	-0.750			
0.2095	13407.84	3.8220	3.8221	-0.8264	6.09	0.10	-0.750			
0.2120	13568.26	3.8190	3.8190	-0.8267	6.10	0.11	-0.750			
0.2145	13727.44	3.8160	3.8160	-0.8226	6.10	0.11	-0.750			
0.2169	13882.79	3.8130	3.8130	-0.8148	6.10	0.11	-0.750			
0.2194	14039.96	3.8100	3.8100	-0.8203	6.11	0.12	-0.750			
0.2218	14196.60	3.8070	3.8070	-0.8239	6.11	0.12	-0.750			
0.2243	14354.52	3.8040	3.8040	-0.8261	6.12	0.13	-0.750			
0.2268	14514.97	3.8010	3.8010	-0.8313	6.12	0.13	-0.750			
0.2293	14677.24	3.7980	3.7980	-0.8350	6.13	0.14	-0.750			
0.2318	14838.34	3.7950	3.7950	-0.8379	6.14	0.15	-0.750			
0.2343	14998.34	3.7920	3.7921	-0.8358	6.14	0.15	-0.750			
0.2368	15156.77	3.7890	3.7890	-0.8386	6.15	0.16	-0.750			
0.2394	15319.96	3.7860	3.7859	-0.8330	6.15	0.16	-0.750			
0.2419	15478.80	3.7830	3.7830	-0.8285	6.16	0.17	-0.750			
0.2444	15640.28	3.7800	3.7800	-0.8336	6.17	0.18	-0.750			
0.2469	15799.15	3.7770	3.7771	-0.8328	6.17	0.18	-0.750			
0.2493	15957.40	3.7740	3.7739	-0.8332	6.18	0.19	-0.750			
0.2518	16115.86	3.7710	3.7710	-0.8321	6.18	0.19	-0.750			
0.2543	16275.88	3.7680	3.7679	-0.8333	6.19	0.20	-0.750			
0.2569	16439.79	3.7650	3.7650	-0.8426	6.20	0.21	-0.750			
0.2594	16601.12	3.7620	3.7620	-0.8401	6.20	0.21	-0.750			
0.2619	16762.30	3.7590	3.7591	-0.8389	6.21	0.22	-0.750			
0.2644	16923.07	3.7560	3.7560	-0.8358	6.22	0.23	-0.750			
0.2669	17083.47	3.7530	3.7530	-0.8368	6.23	0.24	-0.750			
0.2694	17244.67	3.7500	3.7500	-0.8377	6.23	0.24	-0.750			
0.2719	17404.09	3.7470	3.7469	-0.8386	6.24	0.25	-0.750			
0.2744	17564.56	3.7440	3.7441	-0.8446	6.25	0.26	-0.750			
0.2770	17728.13	3.7410	3.7410	-0.8468	6.25	0.26	-0.750			
0.2796	17892.60	3.7380	3.7379	-0.8461	6.25	0.26	-0.750			
0.2821	18055.99	3.7350	3.7350	-0.8487	6.26	0.27	-0.750			
0.2846	18217.31	3.7320	3.7321	-0.8482	6.26	0.27	-0.750			
0.2872	18379.13	3.7290	3.7290	-0.8552	6.27	0.28	-0.750			
0.2897	18542.67	3.7260	3.7259	-0.8521	6.27	0.28	-0.750			
0.2923	18707.17	3.7230	3.7230	-0.8542	6.27	0.28	-0.750			
0.2949	18873.19	3.7200	3.7200	-0.8602	6.28	0.29	-0.750			
0.2975	19039.93	3.7170	3.7169	-0.8653	6.28	0.29	-0.750			
0.3001	19204.96	3.7140	3.7139	-0.8645	6.29	0.30	-0.750			
0.3026	19369.25	3.7110	3.7110	-0.8646	6.30	0.31	-0.750			
0.3052	19535.08	3.7080	3.7080	-0.8682	6.30	0.31	-0.750			
0.3079	19704.47	3.7050	3.7050	-0.8783	6.31	0.32	-0.750			
0.3105	19871.92	3.7020	3.7019	-0.8885	6.31	0.32	-0.750			
0.3132	20043.11	3.6990	3.6990	-0.8934	6.32	0.33	-0.750			
0.3159	20214.85	3.6960	3.6960	-0.9001	6.32	0.33	-0.750			
0.3186	20388.86	3.6930	3.6930	-0.9088	6.33	0.34	-0.750			
0.3213	20565.64	3.6900	3.6902	-0.9149	6.33	0.34	-0.750			
0.3241	20741.34	3.6870	3.6869	-0.9259	6.33	0.34	-0.750			
0.3269	20919.92	3.6840	3.6840	-0.9326	6.34	0.35	-0.750			
0.3297	21098.82	3.6810	3.6810	-0.9403	6.34	0.35	-0.750			
0.3325	21281.24	3.6780	3.6780	-0.9539	6.35	0.36	-0.750			
0.3354	21463.67	3.6750	3.6750	-0.9663	6.35	0.36	-0.750			
0.3383	21650.23	3.6720	3.6720	-0.9749	6.36	0.37	-0.750			
0.3412	21839.15	3.6690	3.6690	-0.9839	6.37	0.38	-0.750			
0.3442	22027.21	3.6660	3.6659	-0.9920	6.38	0.39	-0.750			
0.3472	22220.02	3.6630	3.6630	-1.0112	6.38	0.39	-0.750			
0.3502	22415.17	3.6600	3.6600	-1.0219	6.38	0.39	-0.750			
0.3533	22611.79	3.6570	3.6569	-1.0341	6.39	0.40	-0.750			
0.3564	22810.70	3.6540	3.6540	-1.0432	6.39	0.40	-0.750			
0.3596	23015.18	3.6510	3.6511	-1.0663	6.39	0.40	-0.750			
0.3628	23220.82	3.6480	3.6480	-1.0801	6.40	0.41	-0.750			
0.3661	23429.13	3.6450	3.6450	-1.0908	6.40	0.41	-0.750			
0.3694	23638.98	3.6420	3.6420	-1.1034	6.41	0.42	-0.750			
0.3727	23854.04	3.6390	3.6390	-1.1220	6.41	0.42	-0.750			
0.3761	24071.06	3.6360	3.6360	-1.1348	6.41	0.42	-0.750			
0.3795	24290.52	3.6330	3.6330	-1.1451	6.41	0.42	-0.750			
0.3830	24510.49	3.6300	3.6301	-1.1561	6.41	0.42	-0.750			
0.3865	24734.00	3.6270	3.6269	-1.1800	6.41	0.42	-0.750			
0.3900	24962.29	3.6240	3.6239	-1.1958	6.42	0.43	-0.750			
0.3936	25192.19	3.6210	3.6209	-1.2157	6.43	0.44	-0.750			
0.3973	25427.53	3.6180	3.6181	-1.2323	6.43	0.44	-0.750			
0.4011	25670.05	3.6150	3.6150	-1.2490	6.43	0.44	-0.750			
0.4049	25910.50	3.6120	3.6120	-1.2664	6.43	0.44	-0.750			
0.4086	26152.24	3.6090	3.6092	-1.2790	6.43	0.44	-0.750			
0.4125	26402.32	3.6060	3.6060	-1.3009	6.43	0.44	-0.750			
0.4165	26654.44	3.6030	3.6029	-1.3155	6.44	0.45	-0.750			
0.4204	26908.15	3.6000	3.6000	-1.3324	6.44	0.45	-0.750	0.489	1.147	
0.4245	27168.02	3.5970	3.5969	-1.3498	6.44	0.45	-0.750			
0.4286	27427.93	3.5940	3.5939	-1.3620	6.45	0.46	-0.750			
0.4326	27687.98	3.5910	3.5911	-1.3738	6.45	0.46	-0.750			
0.4368	27953.20	3.5880	3.5879	-1.3902	6.46	0.47	-0.750			
0.4409	28220.65	3.5850	3.5850	-1.4195	6.46	0.47	-0.750			
0.4453	28496.21	3.5820	3.5820	-1.4420	6.47	0.48	-0.750			
0.4496	28776.54	3.5790	3.5789	-1.4589	6.47	0.48	-0.750			
0.4541	29062.35	3.5760	3.5758	-1.4897	6.47	0.48	-0.750			
0.4586	29351.64	3.5730	3.5731	-1.5025	6.47	0.48	-0.750			
0.4631	29641.35	3.5700	3.5701	-1.5159	6.47	0.48	-0.750			
0.4677	29935.59	3.5670	3.5668	-1.5227	6.47	0.48	-0.750			
0.4723	30229.52	3.5640	3.5640	-1.5384	6.47	0.48	-0.750			
0.4770	30527.85	3.5610	3.5608	-1.5556	6.47	0.48	-0.750			
0.4816	30824.62	3.5580	3.5580	-1.5876	6.47	0.48	-0.750			
0.4863	31126.05	3.5550	3.5550	-1.6047	6.47	0.48	-0.750			
0.4913	31441.95	3.5520	3.5520	-1.6286	6.47	0.48	-0.750			
0.4961	31752.40	3.5490	3.5491	-1.6477	6.47	0.48	-0.750			
0.5011	32072.00	3.5460	3.5460	-1.6648	6.47	0.48	-0.750			
0.5062	32397.73	3.5430	3.5431	-1.6995	6.47	0.48	-0.750			
0.5113	32725.68	3.5400	3.5397	-1.7172	6.47	0.48	-0.750			
0.5165	33053.43	3.5370	3.5368	-1.7184	6.48	0.49	-0.750			
0.5217	33388.44	3.5340	3.5341	-1.7259	6.49	0.50	-0.750			
0.5269	33721.78	3.5310	3.5308	-1.7441	6.49	0.50	-0.750			
0.5321	34056.72	3.5280	3.5280	-1.7519	6.50	0.51	-0.750			
0.5375	34398.66	3.5250	3.5249	-1.7482	6.50	0.51	-0.750			
0.5427	34735.49	3.5220	3.5218	-1.7582	6.51	0.52	-0.750			
0.5480	35070.62	3.5190	3.5191	-1.7746	6.51	0.52	-0.750			
0.5534	35417.46	3.5160	3.5159	-1.7706	6.52	0.53	-0.750			
0.5587	35758.36	3.5130	3.5130	-1.7821	6.53	0.54	-0.750			
0.5640	36097.18	3.5100	3.5099	-1.7845	6.53	0.54	-0.750			
0.5694	36442.23	3.5070	3.5069	-1.7904	6.54	0.55	-0.750			
0.5748	36790.19	3.5040	3.5038	-1.7845	6.54	0.55	-0.750			
0.5801	37125.64	3.5010	3.5009	-1.7767	6.55	0.56	-0.750			
0.5854	37467.88	3.4980	3.4979	-1.7661	6.55	0.56	-0.750			
0.5908	37811.20	3.4950	3.4950	-1.7576	6.56	0.57	-0.750			
0.5960	38146.25	3.4920	3.4920	-1.7437	6.57	0.58	-0.750			
0.6013	38480.42	3.4890	3.4889	-1.7311	6.58	0.59	-0.750			
0.6064	38812.71	3.4860	3.4860	-1.7135	6.59	0.60	-0.750			
0.6116	39143.55	3.4830	3.4830	-1.7005	6.59	0.60	-0.750			
0.6167	39469.86	3.4800	3.4799	-1.6874	6.60	0.61	-0.750			
0.6218	39793.79	3.4770	3.4771	-1.6817	6.61	0.62	-0.750			
0.6268	40114.59	3.4740	3.4741	-1.6565	6.63	0.64	-0.750			
0.6318	40432.07	3.4710	3.4709	-1.6305	6.64	0.65	-0.750			
0.6366	40744.94	3.4680	3.4679	-1.5998	6.66	0.67	-0.750			
0.6414	41048.64	3.4650	3.4648	-1.5675	6.68	0.69	-0.750			
0.6460	41344.91	3.4620	3.4621	-1.5384	6.69	0.70	-0.750			
0.6506	41635.78	3.4590	3.4589	-1.5095	6.70	0.71	-0.750			
0.6550	41922.48	3.4560	3.4559	-1.4832	6.72	0.73	-0.750			
0.6595	42208.50	3.4530	3.4531	-1.4723	6.73	0.74	-0.750			
0.6639	42489.21	3.4500	3.4500	-1.4544	6.75	0.76	-0.750			
0.6682	42765.75	3.4470	3.4469	-1.4329	6.76	0.77	-0.750			
0.6725	43040.00	3.4440	3.4441	-1.4013	6.77	0.78	-0.750			
0.6767	43308.40	3.4410	3.4409	-1.3765	6.79	0.80	-0.750			
0.6808	43568.87	3.4380	3.4379	-1.3410	6.80	0.81	-0.750			
0.6847	43821.91	3.4350	3.4351	-1.3010	6.82	0.83	-0.750			
0.6886	44070.90	3.4320	3.4319	-1.2705	6.83	0.84	-0.750			
0.6923	44309.86	3.4290	3.4290	-1.2330	6.85	0.86	-0.750			
0.6959	44539.96	3.4260	3.4261	-1.1993	6.87	0.88	-0.750			
0.6996	44771.25	3.4230	3.4229	-1.1744	6.89	0.90	-0.750			
0.7030	44994.64	3.4200	3.4199	-1.1374	6.90	0.91	-0.750			
0.7064	45208.89	3.4170	3.4170	-1.1107	6.92	0.93	-0.750			
0.7097	45418.34	3.4140	3.4141	-1.0850	6.93	0.94	-0.750			
0.7129	45624.70	3.4110	3.4110	-1.0550	6.94	0.95	-0.750			
0.7160	45822.87	3.4080	3.4079	-1.0242	6.95	0.96	-0.750			
0.7190	46016.29	3.4050	3.4051	-0.9943	6.96	0.97	-0.750			
0.7220	46206.88	3.4020	3.4021	-0.9730	6.98	0.99	-0.750			
0.7249	46392.62	3.3990	3.3989	-0.9477	6.99	1.00	-0.750			
0.7277	46569.87	3.3960	3.3959	-0.9128	7.01	1.02	-0.750			
0.7303	46741.79	3.3930	3.3930	-0.8847	7.03	1.04	-0.750			
0.7330	46910.07	3.3900	3.3901	-0.8608	7.05	1.06	-0.750			
0.7355	47072.48	3.3870	3.3869	-0.8315	7.06	1.07	-0.750			
0.7380	47229.62	3.3840	3.3840	-0.8029	7.08	1.09	-0.750			
0.7403	47379.46	3.3810	3.3810	-0.7836	7.09	1.10	-0.750			
0.7426	47528.87	3.3780	3.3780	-0.7810	7.11	1.12	-0.750			
