Relative time (s)	Voltage (V)	Temperature (°C)	
40.510	3.5043	6.89	
100.510	3.5159	6.89	
160.510	3.5209	6.87	
220.510	3.5248	6.85	
280.510	3.5280	6.81	
340.510	3.5310	6.76	
400.510	3.5334	6.71	
460.510	3.5361	6.67	
520.510	3.5381	6.61	
580.510	3.5399	6.57	
640.510	3.5415	6.51	
700.510	3.5429	6.45	
760.510	3.5442	6.39	
820.510	3.5453	6.34	
880.510	3.5465	6.29	
940.510	3.5473	6.23	
1000.510	3.5483	6.19	
1060.510	3.5490	6.13	
1120.510	3.5497	6.09	
1180.510	3.5504	6.05	
1238.510	3.5509	5.99	
