Relative time (s)	Voltage (V)	Temperature (°C)	
50.912	3.5067	6.75	
110.912	3.5164	6.74	
170.912	3.5208	6.71	
230.912	3.5241	6.67	
290.912	3.5269	6.65	
350.912	3.5293	6.61	
410.912	3.5316	6.55	
470.912	3.5337	6.51	
530.912	3.5358	6.47	
590.912	3.5376	6.43	
650.912	3.5393	6.39	
710.912	3.5407	6.35	
770.912	3.5421	6.31	
830.912	3.5431	6.25	
890.912	3.5443	6.23	
950.912	3.5454	6.19	
1010.912	3.5463	6.15	
1070.912	3.5473	6.11	
1130.912	3.5479	6.05	
1190.912	3.5487	6.03	
1238.912	3.5492	5.99	
